Sample 3 - sdpdrr2 - Wavelength 0.79764                                         
BANK    1       3548       355 CONST   150.00      1.00     0.000     0.000  STD
 1   790 1   795 1   918 1   930 1   900 1   864 1   999 1  1018 1  1024 1  1069
 1   973 1  1069 1   955 1   973 1   992 1  1037 1   980 1  1050 1  1018 1  1056
 1   980 1  1018 1  1116 1  1136 1  1056 1   999 1  1109 1  1122 1  1089 1  1109
 1  1089 1  1082 1  1218 1  1176 1  1170 1  1102 1  1129 1  1136 1  1005 1  1218
 1  1183 1  1136 1  1204 1  1122 1  1246 1  1163 1  1176 1  1218 1  1129 1  1260
 1  1246 1  1163 1  1239 1  1190 1  1122 1  1260 1  1197 1  1318 1  1232 1  1197
 1  1163 1  1190 1  1246 1  1225 1  1142 1  1211 1  1176 1  1170 1  1170 1  1183
 1  1267 1  1076 1  1310 1  1149 1  1211 1  1204 1  1225 1  1218 1  1149 1  1211
 1  1156 1  1096 1  1204 1  1190 1  1253 1  1267 1  1197 1  1211 1  1253 1  1246
 1  1122 1  1149 1  1190 1  1211 1  1197 1  1260 1  1116 1  1156 1  1183 1  1170
 1  1176 1  1156 1  1176 1  1076 1  1170 1  1183 1  1232 1  1239 1  1190 1  1116
 1  1176 1  1183 1  1204 1  1204 1  1122 1  1170 1  1129 1  1204 1  1197 1  1082
 1  1197 1  1089 1  1197 1  1082 1  1225 1  1170 1  1129 1  1156 1  1129 1  1156
 1  1136 1  1176 1  1239 1  1183 1  1142 1  1218 1  1122 1  1170 1  1142 1  1116
 1  1176 1  1122 1  1129 1  1136 1  1142 1  1136 1  1116 1  1109 1  1204 1  1190
 1  1176 1  1232 1  1170 1  1116 1  1142 1  1197 1  1156 1  1136 1  1129 1  1163
 1  1082 1  1129 1  1142 1  1109 1  1102 1  1116 1  1176 1  1116 1  1156 1  1082
 1  1197 1  1109 1  1163 1  1129 1  1069 1  1142 1  1076 1  1069 1  1163 1  1082
 1  1170 1  1037 1  1163 1  1183 1  1183 1  1069 1  1156 1  1232 1  1142 1  1232
 1  1332 1  1576 1  2144 1  1190 1  1129 1  1096 1  1129 1  1109 1  1096 1  1005
 1  1024 1  1082 1  1024 1   967 1  1142 1  1116 1  1063 1  1043 1  1056 1  1056
 1  1030 1  1056 1  1005 1  1030 1  1018 1   992 1  1109 1  1037 1   967 1   942
 1   973 1  1056 1   973 1   999 1   955 1  1018 1   955 1  1037 1  1122 1   980
 1   930 1   961 1   961 1   986 1   973 1   973 1   955 1  1043 1   973 1  1005
 1   986 1   936 1   955 1  1024 1   967 1  1076 1   961 1   961 1   973 1   888
 1   949 1   980 1   918 1   894 1   870 1   912 1   870 1   912 1   936 1   900
 1   870 1   882 1   973 1   853 1   894 1   847 1  1018 1   906 1   906 1   864
 1   853 1   967 1   912 1   912 1   986 1   853 1   870 1   918 1   906 1   858
 1   853 1   894 1   924 1   864 1   906 1   876 1   894 1   864 1   864 1   853
 1   918 1   847 1   936 1   853 1   835 1   973 1   847 1   853 1   930 1   858
 1   906 1   876 1   812 1   864 1   858 1   924 1   858 1   858 1   841 1   858
 1   906 1   882 1   812 1   795 1   912 1   864 1   807 1   841 1   906 1   942
 1   894 1   876 1   847 1   888 1   847 1   847 1   829 1   847 1   924 1   955
 1  1109 1  1665 1  3422 1  8649 1 17796 1  3600 1  1529 1  1163 1  1037 1  1018
 1   961 1   900 1   835 1   900 1   870 1   847 1   942 1   924 1   835 1   812
 1   858 1   870 1   841 1   949 1   853 1   784 1   841 1   829 1   835 1   790
 1   864 1   853 1   818 1   835 1   835 1   807 1   876 1   762 1   829 1   795
 1   864 1   835 1   829 1   841 1   853 1   762 1   784 1   870 1   847 1   870
 1   864 1   824 1   858 1   894 1   853 1   853 1   829 1   853 1   858 1   876
 1   751 1   853 1   847 1   795 1   841 1   824 1   858 1   864 1   835 1   847
 1   807 1   894 1   795 1   824 1   824 1   835 1   858 1   847 1   864 1   801
 1   818 1   784 1   835 1   829 1   801 1   756 1   829 1   807 1   824 1   718
 1   807 1   853 1   847 1   829 1   767 1   858 1   818 1   751 1   801 1   936
 1   858 1   807 1   812 1   841 1   853 1   807 1   795 1   858 1   942 1  1089
 1  1568 1  3982 1 11946 1 22290 1  4160 1  1823 1  1232 1  1069 1  1037 1   870
 1   906 1  1005 1   882 1   882 1   818 1   835 1   767 1   778 1   773 1   767
 1   801 1   784 1   762 1   807 1   790 1   812 1   801 1   713 1   807 1   784
 1   756 1   784 1   795 1   841 1   807 1   767 1   778 1   773 1   790 1   818
 1   773 1   778 1   812 1   724 1   801 1   790 1   841 1   773 1   718 1   773
 1   795 1   829 1   795 1   713 1   790 1   824 1   801 1   767 1   756 1   756
 1   784 1   847 1   790 1   734 1   795 1   751 1   767 1   740 1   801 1   756
 1   790 1   767 1   756 1   858 1   790 1   773 1   778 1   795 1   734 1   784
 1   773 1   801 1   734 1   756 1   784 1   784 1   795 1   778 1   807 1   784
 1   790 1   724 1   745 1   762 1   812 1   900 1   784 1   790 1   767 1   835
 1   740 1   807 1   824 1   812 1   756 1   812 1   740 1   666 1   847 1   801
 1   778 1   724 1   724 1   812 1   734 1   790 1   795 1   835 1   734 1   773
 1   718 1   790 1   778 1   841 1   756 1   756 1   790 1   778 1   724 1   784
 1   801 1   801 1   795 1   818 1   918 1   692 1   795 1   818 1   795 1   829
 1   824 1   795 1   829 1   784 1   729 1   812 1   829 1   762 1   835 1   812
 1   724 1   829 1   790 1   812 1   841 1   801 1   756 1   778 1   807 1   767
 1   784 1   784 1   876 1   762 1   790 1   858 1   807 1   767 1   745 1   767
 1   795 1   790 1   778 1   835 1   864 1  1102 1  1156 1   858 1   745 1   864
 1   784 1   778 1   829 1   784 1   801 1   841 1   767 1   807 1   762 1   778
 1   853 1   762 1   870 1   767 1   847 1   824 1   818 1   847 1   801 1   888
 1   858 1   807 1   882 1   801 1   835 1   745 1   778 1   835 1   894 1   835
 1   778 1   756 1   767 1   812 1   853 1   841 1   784 1   745 1   835 1   751
 1   824 1   835 1   847 1   858 1   906 1   870 1   888 1   841 1   812 1   853
 1   790 1   812 1   858 1   882 1   818 1   745 1   835 1   858 1   807 1   912
 1   882 1   894 1   882 1   858 1   853 1   894 1   882 1   912 1  1260 1  1756
 1  1156 1   876 1   906 1   888 1   986 1   924 1   900 1   894 1   949 1   882
 1   824 1   841 1   906 1   870 1   818 1   906 1   894 1   924 1   906 1   888
 1   955 1   876 1   841 1   882 1   930 1   870 1   882 1   942 1   900 1   864
 1   900 1   864 1   918 1   949 1   955 1   894 1   936 1   906 1   924 1   864
 1   853 1   912 1   906 1   835 1   835 1   986 1   986 1   949 1   918 1   942
 1   942 1   973 1   980 1   930 1   949 1   949 1   942 1   936 1  1005 1   973
 1  1024 1  1050 1  1197 1  1376 1  2088 1  6561 1 21727 1 11621 1  3170 1  1781
 1  1452 1  1246 1  1089 1  1050 1  1056 1  1024 1   942 1  1037 1  1043 1   992
 1  1056 1   980 1   986 1   980 1   955 1   961 1  1011 1  1030 1  1005 1   961
 1  1037 1   961 1   961 1  1063 1  1024 1   961 1   955 1  1069 1  1011 1  1024
 1   986 1  1030 1   980 1  1063 1   973 1  1043 1  1011 1  1018 1   936 1   930
 1  1056 1  1069 1   912 1  1043 1  1089 1   967 1  1018 1  1005 1  1018 1  1037
 1  1056 1  1056 1  1024 1  1018 1  1037 1  1076 1  1122 1  1232 1  2079 1  3624
 1  1781 1  1163 1  1163 1  1142 1  1050 1  1050 1  1018 1  1030 1   986 1  1069
 1   949 1  1030 1  1024 1  1129 1  1076 1  1122 1  1063 1  1024 1  1037 1  1037
 1   967 1  1043 1  1024 1  1050 1  1076 1  1136 1  1089 1  1069 1  1096 1   973
 1  1096 1  1129 1  1109 1  1096 1  1109 1  1050 1  1116 1  1129 1  1043 1  1136
 1  1076 1  1156 1  1102 1  1109 1  1142 1  1096 1  1109 1  1129 1  1246 1  1260
 1  1376 1  1429 1  1560 1  1798 1  2352 1  3819 1 10120 1 46053 1112829 1 33893
 1  8372 1  4147 1  2788 1  2172 1  1798 1  1568 1  1537 1  1347 1  1303 1  1239
 1  1332 1  1089 1  1129 1  1122 1  1176 1  1089 1  1156 1  1102 1  1156 1  1156
 1  1109 1  1102 1  1069 1  1082 1  1050 1  1109 1  1063 1  1183 1  1043 1  1142
 1  1043 1  1149 1  1109 1  1050 1  1076 1  1018 1  1142 1  1102 1  1225 1  1211
 1  1156 1  1116 1   992 1  1018 1  1069 1  1096 1  1122 1  1102 1  1129 1  1011
 1  1136 1  1018 1  1122 1  1122 1  1142 1  1109 1  1076 1  1030 1  1043 1  1050
 1  1076 1  1129 1  1030 1  1011 1  1109 1  1149 1  1024 1  1076 1  1037 1   973
 1  1024 1  1102 1  1102 1  1056 1  1089 1  1109 1  1011 1   999 1  1102 1  1082
 1   986 1  1069 1  1082 1  1142 1  1109 1  1136 1  1005 1  1109 1   992 1  1043
 1  1089 1  1096 1  1050 1  1116 1  1069 1  1096 1  1102 1  1122 1  1082 1  1163
 1  1096 1  1176 1  1239 1  1318 1  1681 1  2927 1 11236 1 21697 1  5898 1  2304
 1  1584 1  1429 1  1354 1  1282 1  1136 1  1225 1  1069 1  1156 1  1089 1  1024
 1  1082 1  1037 1  1069 1  1050 1  1102 1  1069 1  1129 1  1136 1  1082 1  1102
 1  1176 1  1170 1  1076 1  1102 1  1069 1  1082 1  1076 1  1063 1  1102 1  1163
 1  1102 1  1024 1  1037 1  1102 1  1109 1  1076 1  1156 1  1076 1  1102 1  1096
 1  1096 1  1163 1  1197 1  1282 1  1444 1  1823 1  3856 1 13995 1 16538 1  4264
 1  1945 1  1521 1  1362 1  1391 1  1190 1  1102 1  1156 1  1156 1  1082 1  1096
 1  1109 1  1239 1  1136 1  1089 1  1122 1  1050 1  1163 1  1102 1  1163 1  1109
 1  1102 1  1063 1  1129 1  1096 1  1156 1  1116 1  1082 1  1037 1  1102 1  1156
 1  1056 1  1063 1  1082 1  1069 1  1129 1  1170 1  1069 1  1096 1  1102 1  1076
 1  1136 1  1076 1  1225 1  1225 1  1391 1  2218 1  4624 1  3434 1  1552 1  1274
 1  1204 1  1082 1  1149 1  1149 1  1170 1  1129 1  1122 1  1204 1  1109 1  1136
 1  1170 1  1096 1  1076 1  1204 1  1136 1  1082 1  1170 1  1149 1  1109 1  1149
 1  1056 1  1122 1  1129 1  1183 1  1076 1  1136 1  1030 1  1197 1  1122 1  1136
 1  1102 1  1102 1  1102 1  1136 1  1149 1  1076 1  1037 1  1122 1  1136 1  1037
 1  1109 1  1232 1  1056 1  1122 1  1082 1  1109 1  1156 1  1142 1  1246 1  1163
 1  1005 1  1142 1  1142 1  1043 1  1211 1  1050 1  1069 1  1129 1  1170 1  1176
 1  1122 1  1116 1  1069 1  1076 1  1109 1  1096 1  1204 1  1089 1  1149 1  1163
 1  1156 1  1102 1  1102 1  1116 1  1089 1  1129 1  1102 1  1253 1  1163 1  1122
 1  1142 1  1163 1  1089 1  1170 1  1232 1  1122 1  1274 1  1592 1  3125 1  2632
 1  1436 1  1211 1  1096 1  1156 1  1170 1  1109 1  1232 1  1129 1  1170 1  1149
 1  1176 1  1156 1  1149 1  1096 1  1149 1  1102 1  1122 1  1190 1  1163 1  1136
 1  1102 1  1122 1  1204 1  1163 1  1232 1  1102 1  1142 1  1190 1  1176 1  1190
 1  1211 1  1102 1  1142 1  1102 1  1069 1  1183 1  1096 1  1204 1  1129 1  1218
 1  1340 1  1665 1  3147 1  2190 1  1414 1  1354 1  1232 1  1232 1  1218 1  1183
 1  1176 1  1116 1  1149 1  1129 1  1260 1  1122 1  1156 1  1142 1  1225 1  1176
 1  1082 1  1156 1  1163 1  1136 1  1197 1  1109 1  1089 1  1190 1  1142 1  1170
 1  1163 1  1149 1  1149 1  1218 1  1204 1  1156 1  1176 1  1149 1  1274 1  1253
 1  1303 1  1332 1  1552 1  2237 1  6675 1  7903 1  2905 1  1648 1  1391 1  1253
 1  1246 1  1204 1  1211 1  1176 1  1136 1  1149 1  1170 1  1082 1  1218 1  1211
 1  1225 1  1096 1  1116 1  1211 1  1183 1  1163 1  1142 1  1303 1  1211 1  1149
 1  1102 1  1176 1  1142 1  1197 1  1239 1  1163 1  1122 1  1204 1  1218 1  1253
 1  1183 1  1176 1  1310 1  1665 1  2540 1  8630 1 16256 1  5991 1  2560 1  1608
 1  1475 1  1354 1  1391 1  1310 1  1211 1  1239 1  1156 1  1170 1  1197 1  1197
 1  1225 1  1122 1  1156 1  1163 1  1136 1  1156 1  1156 1  1129 1  1190 1  1122
 1  1211 1  1239 1  1142 1  1122 1  1183 1  1190 1  1156 1  1211 1  1211 1  1190
 1  1204 1  1303 1  1354 1  1608 1  2490 1  7604 1 17187 1  6972 1  2694 1  1806
 1  1552 1  1429 1  1225 1  1325 1  1225 1  1274 1  1239 1  1197 1  1190 1  1156
 1  1211 1  1190 1  1260 1  1204 1  1204 1  1211 1  1170 1  1204 1  1163 1  1142
 1  1149 1  1197 1  1232 1  1190 1  1197 1  1109 1  1156 1  1211 1  1197 1  1211
 1  1246 1  1267 1  1303 1  1772 1  3944 1  8649 1  4679 1  2052 1  1505 1  1332
 1  1239 1  1211 1  1183 1  1156 1  1096 1  1211 1  1176 1  1156 1  1149 1  1116
 1  1089 1  1129 1  1170 1  1102 1  1096 1  1109 1  1142 1  1129 1  1129 1  1089
 1  1142 1  1122 1  1116 1  1122 1  1129 1  1156 1  1136 1  1102 1  1136 1  1136
 1  1156 1  1156 1  1722 1  3226 1  2401 1  1332 1  1170 1  1082 1  1089 1  1096
 1  1037 1  1069 1  1142 1  1069 1  1129 1  1102 1  1089 1  1102 1  1122 1  1116
 1  1030 1  1082 1  1050 1  1082 1  1089 1  1069 1  1142 1  1170 1  1089 1  1024
 1  1082 1  1030 1  1056 1  1030 1   999 1  1050 1  1102 1  1142 1  1163 1  1722
 1  3552 1  3721 1  1764 1  1211 1  1170 1  1069 1  1082 1  1102 1  1122 1  1063
 1  1102 1  1116 1  1136 1  1253 1  1303 1  1482 1  1384 1  1129 1  1082 1  1089
 1  1089 1  1056 1  1056 1  1011 1  1043 1  1005 1  1018 1  1050 1  1050 1  1024
 1  1030 1  1050 1  1011 1  1011 1  1102 1  1225 1  2079 1  3399 1  1989 1  1325
 1  1109 1  1102 1  1037 1  1030 1  1063 1  1096 1   986 1  1037 1  1011 1  1043
 1  1050 1  1018 1  1037 1  1037 1  1050 1   961 1   967 1   999 1  1011 1   992
 1  1005 1   967 1   973 1  1037 1  1018 1   999 1  1018 1   999 1   992 1  1043
 1  1056 1  1129 1  1892 1  2200 1  1310 1  1043 1  1024 1  1005 1  1011 1   986
 1   999 1   986 1  1030 1   980 1  1024 1   992 1   918 1   955 1   999 1   992
 1  1011 1   992 1   967 1   924 1   967 1   999 1   986 1  1037 1  1005 1   942
 1  1063 1   973 1  1005 1  1056 1  1024 1  1043 1  1475 1  2948 1  3411 1  1714
 1  1204 1  1082 1  1030 1  1030 1   961 1  1018 1  1018 1  1011 1  1063 1   973
 1   980 1   942 1   967 1   942 1   986 1   930 1   955 1   955 1   930 1   924
 1   967 1   942 1   942 1   999 1   924 1   936 1   967 1   967 1   973 1   942
 1   986 1  1170 1  1429 1  1122 1   967 1   942 1   930 1   906 1   949 1   967
 1   942 1   961 1   918 1   967 1   918 1   936 1   918 1   906 1   912 1   980
 1   924 1   936 1   912 1   980 1   967 1   936 1   930 1   942 1   955 1   973
 1   942 1   999 1   955 1  1122 1  1640 1  3856 1  4173 1  1936 1  1176 1  1069
 1   999 1   961 1   973 1   955 1   942 1   906 1   942 1   888 1   906 1   906
 1   955 1   894 1   906 1   955 1   912 1   955 1   918 1   949 1   930 1   900
 1   942 1   853 1   930 1   906 1   882 1   942 1   900 1   930 1  1149 1  1239
 1  1037 1   999 1   882 1   912 1   924 1   949 1   900 1   853 1   949 1   961
 1   936 1   841 1   961 1   888 1   894 1   900 1   900 1   906 1   912 1   936
 1   936 1   949 1   894 1   942 1   870 1   924 1   894 1   936 1   888 1   906
 1   900 1   936 1   900 1   900 1   900 1   847 1   930 1   888 1   853 1   912
 1   906 1   864 1   864 1   930 1   882 1   876 1   900 1   864 1   882 1   942
 1   912 1   900 1   876 1   967 1   900 1   894 1   876 1   864 1   876 1   864
 1   906 1   906 1   864 1   930 1   942 1   864 1   930 1   894 1   882 1   882
 1   900 1   949 1   870 1   906 1   864 1   853 1   829 1   906 1   870 1   906
 1   888 1   858 1   912 1   870 1   870 1   906 1   876 1   818 1   936 1   876
 1   876 1   906 1   930 1   986 1  1197 1  1183 1  1011 1   942 1   882 1   870
 1   900 1   870 1   882 1   912 1   864 1   858 1   894 1   900 1   870 1   876
 1   841 1   864 1   858 1   900 1   882 1   847 1   876 1   918 1   876 1   882
 1   882 1   900 1   888 1   870 1   894 1   853 1   829 1   986 1   912 1   906
 1   864 1   912 1   864 1   912 1   888 1   912 1   870 1   900 1   900 1   906
 1   912 1   912 1   882 1   906 1   918 1   918 1   853 1   930 1   841 1   888
 1   888 1   918 1   936 1   876 1  1005 1  1399 1  1739 1  1260 1   894 1   992
 1   936 1   924 1   882 1   894 1   924 1   930 1   900 1   942 1   942 1   876
 1   924 1   918 1   961 1   918 1   894 1   930 1   888 1   936 1   906 1   912
 1   918 1   888 1   955 1   912 1   942 1  1116 1  1204 1  1069 1   942 1   986
 1   912 1   858 1   858 1   924 1   906 1   888 1   894 1   888 1   882 1   894
 1   888 1   882 1   906 1   936 1   936 1   942 1   853 1   906 1   918 1   888
 1   882 1   888 1   918 1   973 1  1037 1  1521 1  1505 1  1050 1   930 1   900
 1   930 1   949 1   967 1   906 1   870 1   930 1   882 1   900 1   930 1   924
 1   888 1   894 1   918 1   894 1   824 1   930 1   942 1   936 1   900 1   912
 1   906 1   955 1   924 1   942 1  1170 1  1232 1  1030 1   961 1   967 1   882
 1   973 1   955 1   906 1   924 1   936 1   894 1   888 1   847 1   936 1   961
 1   900 1   942 1   936 1   900 1   942 1   936 1   924 1   918 1   900 1   949
 1   936 1   949 1  1096 1  1490 1  1568 1  1076 1   930 1   955 1   924 1   942
 1   888 1   894 1   912 1   894 1   918 1   876 1   918 1   894 1   949 1   955
 1   930 1   900 1   882 1   882 1   918 1   864 1   900 1   918 1   912 1   894
 1   961 1  1190 1  1318 1  1096 1   980 1   924 1   882 1   942 1   888 1   900
 1   894 1   894 1   894 1   912 1   888 1   864 1   973 1   876 1   906 1   847
 1   936 1   882 1   900 1   918 1   870 1   900 1   888 1   924 1   936 1   973
 1  1030 1   986 1   942 1   906 1   882 1   906 1   882 1   912 1   864 1   864
 1   894 1   930 1   882 1   924 1   918 1   888 1   930 1   864 1   918 1   894
 1   912 1   894 1   918 1   882 1   942 1   858 1   955 1  1030 1  1018 1   894
 1   930 1   900 1   894 1   918 1   918 1   900 1   858 1   900 1   900 1   912
 1   942 1   870 1   870 1   936 1   888 1   912 1   853 1   906 1   936 1   864
 1   930 1   918 1   906 1   992 1  1204 1  1616 1  1246 1   999 1   967 1   961
 1   870 1   936 1   847 1   882 1   870 1   930 1   918 1   870 1   900 1   912
 1   906 1   918 1   894 1   870 1   870 1   870 1   876 1   900 1   888 1   900
 1   853 1   936 1   980 1   888 1   967 1   894 1   847 1   918 1   882 1   864
 1   841 1   876 1   918 1   853 1   835 1   864 1   882 1   882 1   870 1   906
 1   858 1   900 1   870 1   882 1   894 1   870 1   918 1  1030 1  1303 1  1815
 1  1225 1  1037 1   918 1   888 1   924 1   894 1   841 1   888 1   870 1   835
 1   824 1   870 1   900 1   824 1   888 1   924 1   870 1   906 1   829 1   847
 1   912 1   835 1   882 1   824 1   870 1   858 1   864 1   858 1   918 1   801
 1   841 1   870 1   824 1   853 1   847 1   858 1   888 1   876 1   853 1   870
 1   853 1   900 1   870 1   918 1   900 1   912 1   912 1   980 1   894 1   876
 1   894 1  1011 1  1109 1   882 1   900 1   949 1   900 1   876 1   882 1   858
 1   841 1   847 1   801 1   870 1   882 1   835 1   847 1   818 1   829 1   829
 1   812 1   841 1   801 1   894 1   807 1   847 1   812 1   853 1   841 1   847
 1   835 1   784 1   900 1   818 1   812 1   835 1   864 1   829 1   790 1   858
 1   801 1   807 1   807 1   767 1   847 1   858 1   818 1   818 1   824 1   841
 1   876 1   784 1   949 1  1043 1   967 1   912 1   778 1   829 1   818 1   807
 1   882 1   801 1   858 1   807 1   824 1   847 1   812 1   841 1   812 1   818
 1   818 1   756 1   829 1   835 1   835 1   818 1   807 1   894 1   894 1   900
 1   841 1   824 1   812 1   870 1   807 1   778 1   858 1   847 1   807 1   870
 1   835 1   847 1   888 1   841 1   807 1   824 1   818 1   835 1   900 1   876
 1   858 1  1005 1  1260 1  2256 1  2480 1  1444 1  1030 1   900 1   864 1   807
 1   835 1   801 1   801 1   853 1   778 1   801 1   767 1   812 1   790 1   812
 1   818 1   847 1   841 1   841 1   807 1   801 1   824 1   900 1  1156 1  1043
 1   841 1   835 1   829 1   824 1   751 1   841 1   818 1   829 1   773 1   795
 1   835 1   795 1   818 1   807 1   824 1   767 1   818 1   835 1   784 1   841
 1   807 1   795 1   918 1   949 1   900 1   818 1   801 1   858 1   773 1   784
 1   801 1   841 1   818 1   767 1   818 1   784 1   835 1   829 1   801 1   824
 1   824 1   812 1   801 1   795 1   864 1   906 1   918 1  1232 1  1253 1   924
 1   912 1   795 1   807 1   829 1   790 1   835 1   790 1   847 1   853 1   790
 1   762 1   847 1   807 1   853 1   835 1   847 1   751 1   784 1   900 1   835
 1   876 1  1043 1  1063 1   949 1   858 1   818 1   801 1   790 1   847 1   767
 1   841 1   812 1   751 1   762 1   870 1   818 1   767 1   767 1   795 1   801
 1   778 1   858 1   930 1   767 1   930 1  1204 1  1399 1  1030 1   882 1   790
 1   864 1   829 1   870 1   858 1   784 1   778 1   818 1   824 1   847 1   762
 1   818 1   812 1   790 1   812 1   767 1   784 1   829 1   812 1   824 1   847
 1   841 1   778 1   784 1   812 1   784 1   812 1   795 1   801 1   864 1   829
 1   841 1   790 1   801 1   807 1   841 1   801 1   795 1   818 1   801 1   812
 1   824 1   824 1   795 1   795 1   812 1   801 1   790 1   795 1   870 1   795
 1   807 1   784 1   729 1   807 1   801 1   818 1   824 1   824 1   812 1   801
 1   773 1   847 1   824 1   790 1   801 1   801 1   906 1   924 1   829 1   824
 1   767 1   847 1   801 1   824 1   795 1   807 1   795 1   824 1   790 1   773
 1   818 1   790 1   795 1   858 1   790 1   795 1   807 1   835 1   812 1   756
 1   829 1   829 1   773 1   818 1   807 1   864 1   829 1   751 1   847 1   824
 1   773 1   807 1   784 1   778 1   801 1   824 1   858 1   745 1   801 1   858
 1   812 1   812 1   961 1   906 1   870 1   858 1   853 1   829 1   778 1   795
 1   847 1   812 1   807 1   812 1   824 1   773 1   784 1   767 1   762 1   795
 1   773 1   778 1   795 1   795 1   784 1   818 1   824 1   858 1   818 1   824
 1   829 1   841 1   778 1   841 1   767 1   790 1   818 1   740 1   824 1   847
 1   812 1   818 1   795 1   829 1   778 1   767 1   767 1   818 1   864 1   818
 1   778 1   801 1   724 1   835 1   841 1   812 1   818 1   784 1   756 1   778
 1   818 1   829 1   801 1   773 1   824 1   773 1   756 1   795 1   801 1   795
 1   829 1   812 1   858 1   734 1   824 1   829 1   740 1   773 1   812 1   818
 1   807 1   724 1   773 1   790 1   835 1   795 1   853 1   740 1   829 1   818
 1   841 1   930 1  1436 1  1505 1  1163 1   949 1   795 1   824 1   824 1   824
 1   795 1   853 1   778 1   767 1   778 1   790 1   795 1   778 1   812 1   773
 1   784 1   778 1   773 1   784 1   778 1   773 1   767 1   795 1   801 1   745
 1   807 1   784 1   778 1   829 1   784 1   847 1   801 1   841 1   784 1   756
 1   870 1   784 1   767 1   686 1   824 1   841 1   961 1  1050 1   918 1   841
 1   858 1   778 1   773 1   801 1   778 1   795 1   773 1   751 1   756 1   751
 1   790 1   751 1   745 1   807 1   807 1   790 1   745 1   835 1   918 1   936
 1   858 1   812 1   795 1   795 1   773 1   734 1   784 1   790 1   807 1   778
 1   773 1   784 1   795 1   790 1   824 1   818 1   767 1   790 1   882 1  1163
 1  1584 1  1340 1  1056 1   829 1   818 1   818 1   784 1   812 1   762 1   762
 1   773 1   718 1   801 1   751 1   790 1   734 1   745 1   745 1   773 1   767
 1   795 1   864 1   835 1   784 1   778 1   767 1   773 1   756 1   767 1   847
 1   718 1   734 1   767 1   767 1   767 1   784 1   778 1   745 1   740 1   801
 1   713 1   773 1   864 1   936 1   864 1   778 1   773 1   767 1   724 1   767
 1   718 1   692 1   740 1   767 1   740 1   784 1   756 1   801 1   745 1   773
 1   784 1   734 1   756 1   784 1   807 1   801 1   751 1   713 1   718 1   724
 1   745 1   734 1   773 1   801 1   702 1   795 1   713 1   729 1   751 1   729
 1   756 1   762 1   729 1   767 1   756 1   801 1   824 1   784 1   724 1   734
 1   734 1   740 1   745 1   702 1   795 1   718 1   740 1   718 1   713 1   740
 1   713 1   773 1   751 1   708 1   784 1   745 1   740 1   767 1   801 1   778
 1   778 1   740 1   692 1   745 1   740 1   740 1   702 1   734 1   718 1   767
 1   692 1   702 1   708 1   708 1   790 1   858 1  1076 1  1362 1  1063 1   835
 1   745 1   751 1   729 1   729 1   784 1   724 1   708 1   708 1   702 1   713
 1   734 1   702 1   751 1   692 1   692 1   729 1   702 1   734 1   702 1   784
 1   702 1   718 1   686 1   724 1   740 1   729 1   740 1   734 1   745 1   729
 1   702 1   724 1   724 1   724 1   790 1   734 1   807 1   930 1   999 1   847
 1   818 1   702 1   745 1   708 1   724 1   708 1   708 1   729 1   697 1   734
 1   724 1   676 1   724 1   681 1   729 1   745 1   708 1   767 1   824 1   853
 1   778 1   724 1   734 1   708 1   718 1   724 1   729 1   751 1   729 1   740
 1   745 1   734 1   666 1   692 1   718 1   697 1   713 1   713 1   784 1   762
 1   745 1   751 1   702 1   756 1   751 1   676 1   702 1   686 1   681 1   729
 1   718 1   724 1   697 1   734 1   702 1   745 1   718 1   671 1   681 1   713
 1   686 1   650 1   676 1   702 1   666 1   718 1   756 1   671 1   724 1   734
 1   702 1   655 1   708 1   702 1   681 1   686 1   718 1   724 1   740 1   745
 1   686 1   697 1   681 1   692 1   671 1   702 1   702 1   745 1   718 1   729
 1   718 1   666 1   686 1   718 1   697 1   666 1   713 1   713 1   778 1   778
 1   650 1   702 1   708 1   708 1   692 1   713 1   686 1   697 1   660 1   681
 1   724 1   671 1   697 1   713 1   676 1   686 1   734 1   734 1   790 1   795
 1   790 1   734 1   702 1   676 1   650 1   666 1   724 1   734 1   697 1   676
 1   692 1   681 1   692 1   708 1   718 1   713 1   681 1   745 1   762 1   767
 1   697 1   681 1   713 1   671 1   702 1   681 1   729 1   686 1   666 1   702
 1   729 1   640 1   702 1   666 1   708 1   692 1   713 1   708 1   724 1   713
 1   686 1   740 1   681 1   686 1   718 1   681 1   724 1   708 1   686 1   686
 1   666 1   692 1   708 1   718 1   729 1   702 1   686 1   697 1   650 1   697
 1   635 1   686 1   681 1   681 1   724 1   740 1   681 1   681 1   708 1   630
 1   666 1   681 1   729 1   692 1   751 1   697 1   734 1   686 1   635 1   767
 1   718 1   686 1   745 1   734 1   702 1   718 1   729 1   645 1   713 1   718
 1   708 1   718 1   708 1   708 1   697 1   676 1   676 1   625 1   718 1   718
 1   676 1   740 1   702 1   713 1   697 1   692 1   645 1   697 1   681 1   671
 1   702 1   666 1   708 1   729 1   671 1   745 1   660 1   740 1   724 1   692
 1   702 1   686 1   676 1   734 1   702 1   681 1   692 1   676 1   681 1   708
 1   702 1   645 1   729 1   697 1   718 1   660 1   640 1   702 1   676 1   676
 1   692 1   708 1   692 1   702 1   681 1   718 1   650 1   692 1   676 1   676
 1   671 1   773 1   671 1   708 1   713 1   708 1   671 1   692 1   729 1   692
 1   697 1   645 1   620 1   718 1   640 1   676 1   762 1   745 1   702 1   681
 1   708 1   697 1   681 1   676 1   697 1   729 1   686 1   745 1   708 1   718
 1   645 1   686 1   676 1   676 1   681 1   681 1   645 1   724 1   676 1   635
 1   660 1   671 1   671 1   740 1   713 1   697 1   645 1   708 1   740 1   686
 1   686 1   676 1   734 1   697 1   666 1   729 1   708 1   671 1   692 1   708
 1   681 1   729 1   686 1   692 1   681 1   708 1   640 1   645 1   702 1   692
 1   666 1   718 1   708 1   655 1   671 1   686 1   718 1   692 1   778 1   702
 1   734 1   686 1   681 1   655 1   697 1   655 1   666 1   666 1   650 1   718
 1   671 1   671 1   660 1   686 1   697 1   660 1   740 1   660 1   660 1   724
 1   660 1   708 1   666 1   660 1   686 1   686 1   610 1   615 1   686 1   713
 1   676 1   681 1   734 1   645 1   681 1   660 1   724 1   640 1   740 1   650
 1   655 1   605 1   676 1   660 1   692 1   666 1   708 1   734 1   729 1   660
 1   692 1   686 1   650 1   745 1   708 1   724 1   729 1   686 1   671 1   686
 1   676 1   724 1   671 1   671 1   702 1   660 1   740 1   702 1   702 1   660
 1   702 1   762 1   756 1   708 1   713 1   681 1   724 1   718 1   655 1   729
 1   671 1   666 1   724 1   692 1   702 1   713 1   640 1   692 1   681 1   702
 1   751 1   751 1   708 1   724 1   676 1   660 1   745 1   666 1   681 1   676
 1   600 1   635 1   660 1   681 1   713 1   718 1   734 1   734 1   751 1   686
 1   734 1   671 1   734 1   697 1   692 1   671 1   671 1   660 1   686 1   681
 1   692 1   660 1   671 1   702 1   702 1   734 1   784 1   692 1   708 1   724
 1   650 1   676 1   676 1   708 1   650 1   702 1   692 1   702 1   708 1   692
 1   660 1   702 1   708 1   697 1   724 1   666 1   671 1   645 1   676 1   655
 1   686 1   681 1   660 1   655 1   697 1   650 1   676 1   708 1   713 1   660
 1   610 1   713 1   671 1   676 1   686 1   713 1   666 1   655 1   681 1   671
 1   681 1   671 1   686 1   640 1   692 1   681 1   686 1   702 1   697 1   676
 1   686 1   681 1   713 1   645 1   671 1   655 1   625 1   702 1   671 1   635
 1   686 1   625 1   650 1   640 1   676 1   630 1   650 1   660 1   655 1   640
 1   681 1   681 1   671 1   692 1   671 1   625 1   630 1   655 1   645 1   650
 1   655 1   666 1   686 1   762 1   729 1   740 1   671 1   615 1   702 1   635
 1   671 1   650 1   645 1   630 1   681 1   655 1   660 1   660 1   635 1   615
 1   660 1   702 1   676 1   676 1   686 1   681 1   655 1   681 1   666 1   666
 1   686 1   650 1   666 1   660 1   655 1   666 1   708 1   681 1   676 1   686
 1   702 1   625 1   635 1   660 1   676 1   671 1   635 1   610 1   645 1   692
 1   666 1   645 1   660 1   655 1   645 1   640 1   686 1   686 1   666 1   708
 1   676 1   650 1   650 1   676 1   645 1   650 1   660 1   666 1   640 1   655
 1   635 1   630 1   671 1   686 1   620 1   666 1   666 1   660 1   681 1   671
 1   655 1   660 1   620 1   640 1   620 1   660 1   671 1   650 1   605 1   655
 1   635 1   655 1   605 1   625 1   610 1   666 1   640 1   630 1   625 1   671
 1   655 1   666 1   640 1   686 1   650 1   605 1   660 1   666 1   660 1   671
 1   600 1   635 1   595 1   645 1   692 1   610 1   630 1   630 1   655 1   655
 1   635 1   650 1   655 1   660 1   686 1   660 1   676 1   655 1   666 1   660
 1   655 1   645 1   640 1   615 1   625 1   650 1   645 1   605                
