SIETRONICS XRD SCAN
1.500
80.000
0.005
Xx
0.79764
23-11-1998
0.150
Sample 2 - sdpdrr2 - Wavelength 0.79764
SCANDATA
341
326
329
323
330
314
349
361
326
352
352
352
346
352
333
345
311
320
317
336
357
320
333
324
362
337
336
347
334
324
312
344
332
309
316
331
319
333
363
328
327
314
332
325
341
332
366
338
310
323
307
355
321
346
355
295
361
321
329
317
341
345
341
327
346
317
317
339
333
349
330
316
343
331
330
370
310
315
313
337
355
306
321
332
344
293
343
302
334
306
376
318
310
337
339
338
337
281
353
337
349
316
315
335
360
321
285
335
322
297
304
330
351
330
343
331
333
350
328
347
326
320
324
304
356
345
329
370
338
287
345
337
345
339
325
326
336
321
316
313
323
310
332
329
346
343
335
313
308
326
306
312
337
286
321
333
353
342
329
350
306
327
294
312
310
315
318
340
320
310
295
319
308
317
321
313
332
319
335
326
338
334
314
298
343
315
317
306
328
325
313
306
330
322
302
313
329
318
337
326
329
291
332
315
306
325
323
271
344
327
304
300
321
340
322
314
329
309
335
324
316
334
311
311
339
282
332
303
315
324
314
313
317
316
349
308
285
330
305
320
316
317
314
316
309
312
335
318
337
343
271
333
336
306
333
322
301
326
307
309
305
323
332
288
361
299
306
313
312
353
313
281
323
299
322
295
331
334
311
318
320
311
340
300
311
336
304
318
331
309
304
323
329
317
307
357
306
318
281
330
323
277
295
324
327
288
329
330
292
320
316
296
268
343
313
300
297
321
307
321
329
304
316
337
315
321
297
309
323
326
351
301
323
322
342
289
311
291
349
328
286
303
318
327
288
297
304
349
319
269
308
319
285
286
304
299
293
317
325
294
317
291
302
300
285
323
330
300
297
293
275
327
295
311
302
302
344
326
297
302
297
298
296
319
328
289
311
312
263
298
320
312
312
327
303
320
311
282
305
299
327
305
312
310
325
321
270
305
291
297
312
327
294
297
301
296
318
293
297
312
294
302
293
343
302
321
320
275
269
285
314
307
309
308
311
310
299
287
284
305
316
302
279
281
307
289
332
283
269
293
295
309
302
292
330
317
320
313
317
306
309
287
295
286
305
302
297
300
291
296
297
332
300
294
304
299
289
305
293
318
319
302
307
279
279
293
319
329
320
305
300
279
293
341
280
299
282
299
294
304
327
304
314
306
302
281
301
287
280
300
296
284
335
299
327
303
307
302
300
331
298
308
337
294
323
288
291
307
337
297
317
313
333
320
363
347
338
351
342
358
409
377
434
461
564
793
1268
2134
3480
4814
4023
2397
1201
692
481
455
424
382
377
383
348
329
350
331
336
309
279
326
331
316
337
300
327
284
297
318
322
323
301
332
310
289
282
321
315
280
300
319
283
292
317
302
291
312
308
313
311
309
291
277
326
318
303
297
281
300
285
286
316
287
303
274
313
318
292
290
327
276
310
311
309
323
293
316
284
300
277
299
302
318
319
283
316
258
299
288
304
311
326
294
297
291
309
323
322
315
314
319
345
348
402
435
472
561
769
1388
2221
2915
2673
1658
962
582
465
425
366
381
338
351
315
307
312
311
320
292
302
311
311
325
311
296
268
262
270
309
292
278
281
278
337
307
308
306
302
275
302
325
302
304
262
281
295
280
292
341
294
278
317
341
323
303
302
290
307
270
267
294
293
314
259
293
298
286
285
304
263
286
269
264
281
280
271
286
299
282
289
305
267
287
277
288
303
326
317
317
279
310
288
268
295
326
279
300
302
309
314
316
292
312
312
312
338
305
320
337
320
346
333
343
366
402
393
425
409
482
526
672
815
1043
1759
3267
5924
8929
9025
5984
3161
1546
932
707
610
531
462
452
375
407
373
360
341
296
351
283
322
298
326
323
328
332
312
318
300
308
307
268
306
325
270
284
306
300
283
266
311
279
271
293
285
301
281
282
277
279
262
306
298
271
288
265
285
280
315
288
274
309
289
298
281
288
275
274
278
274
287
308
263
266
294
268
289
295
266
276
306
259
294
243
295
285
272
275
296
283
287
287
259
275
288
263
291
298
283
286
272
312
291
281
309
286
273
264
256
292
265
284
288
278
295
274
298
237
299
281
290
300
258
272
267
320
301
270
312
352
326
417
550
752
859
780
603
409
370
309
304
286
303
274
281
267
245
272
268
273
281
289
253
287
269
262
268
304
263
288
271
293
262
253
251
271
265
275
269
275
267
224
274
258
270
297
255
273
265
253
253
251
254
280
274
258
271
282
297
294
248
279
242
306
273
271
273
286
284
269
265
287
286
300
272
291
260
305
268
283
297
289
279
261
256
293
242
242
265
269
270
246
300
269
286
238
233
254
266
281
261
296
256
287
271
279
268
283
271
285
255
276
266
287
271
291
297
252
312
250
273
274
268
250
243
278
264
250
282
276
242
278
242
289
282
271
258
285
292
260
256
258
278
268
266
266
253
252
259
252
279
254
254
284
292
271
289
309
268
261
268
272
280
259
242
253
289
273
254
261
270
241
296
245
281
272
262
306
265
272
276
286
275
290
314
298
302
358
405
569
897
1119
1126
1085
791
527
370
334
306
319
320
284
304
270
255
283
275
273
271
268
297
311
287
256
246
291
283
277
264
286
297
243
253
275
267
246
284
294
281
269
295
273
261
275
284
262
251
276
256
274
301
288
316
298
284
281
259
254
253
278
281
307
332
348
336
340
410
532
809
1327
1857
1978
1484
878
583
387
356
334
339
303
294
284
303
252
296
294
265
257
278
263
261
249
228
275
278
259
269
253
255
241
288
249
267
280
263
217
249
259
247
248
244
263
266
284
285
244
266
266
263
255
264
234
280
282
248
243
242
222
268
281
233
261
256
273
249
275
252
256
250
250
241
253
234
263
270
267
250
270
306
295
317
325
390
518
639
649
588
536
496
568
555
471
339
311
302
259
248
292
257
261
257
266
259
262
241
265
259
276
265
244
244
262
254
282
258
245
242
277
260
238
268
269
262
250
238
250
224
232
256
267
281
258
251
244
271
262
227
246
241
251
252
241
286
259
278
228
229
251
254
242
266
229
269
249
229
272
241
251
231
232
253
298
248
280
259
282
224
257
258
250
256
235
238
246
275
241
249
249
235
259
226
240
260
240
265
273
260
272
246
264
258
265
238
260
272
282
261
260
248
255
246
241
276
267
275
269
284
251
292
261
319
319
251
291
326
285
321
365
381
446
614
926
1489
2169
2323
1900
1448
1563
2056
2704
2681
1948
1162
700
488
389
359
340
365
317
325
290
274
268
286
265
287
280
290
276
255
285
260
280
237
258
260
248
244
256
254
231
261
237
276
223
251
287
259
264
252
250
249
255
265
249
240
231
245
257
263
236
253
265
257
245
264
264
239
237
284
246
274
243
263
244
259
238
226
242
242
276
270
253
264
256
243
237
227
231
258
221
248
233
252
261
269
232
236
238
233
242
229
257
246
257
244
256
241
252
254
257
272
231
252
235
249
232
244
274
261
244
252
271
300
310
417
475
692
952
1011
815
556
462
368
389
347
336
290
270
285
281
284
272
255
263
295
293
251
266
240
251
264
241
274
260
270
268
305
260
278
297
318
377
400
522
830
1300
2034
2529
2159
1315
790
474
391
332
292
302
271
274
245
283
250
266
276
251
275
247
252
243
259
252
237
269
245
252
240
256
267
227
259
247
246
236
244
242
239
241
235
280
292
280
303
238
280
277
296
317
345
353
344
485
615
864
1653
2498
3254
2816
1847
1050
612
477
387
335
311
327
294
298
276
317
255
273
248
263
247
254
248
250
254
251
248
245
256
269
295
256
234
241
237
275
233
217
259
249
238
245
215
233
249
266
250
228
240
252
248
237
246
228
258
248
280
280
381
476
521
549
444
321
304
285
276
242
231
239
260
245
213
259
229
244
224
242
260
243
248
236
222
236
233
222
243
260
230
242
215
199
246
224
213
231
230
238
243
230
210
214
236
224
254
245
226
234
227
257
245
243
243
236
290
277
255
276
272
307
301
306
273
262
212
236
266
227
230
233
249
235
223
249
222
233
230
222
225
239
227
235
227
231
225
239
243
243
213
235
236
234
237
251
225
232
193
225
217
229
244
210
231
236
242
226
253
235
227
239
229
224
204
227
218
214
222
248
220
226
257
241
225
234
233
228
219
221
236
251
232
234
222
219
239
220
253
237
224
254
221
225
203
237
214
238
264
244
244
261
262
207
230
251
249
246
261
254
270
229
244
262
228
249
238
261
228
236
235
263
246
258
246
278
262
257
297
314
311
317
357
332
346
392
414
480
626
786
1210
2201
3449
4671
4716
3439
2201
1338
1030
817
716
801
950
1406
2194
3578
5165
5825
4847
2995
1771
958
719
548
544
577
629
723
938
950
838
633
480
492
473
673
884
1151
1203
1009
651
464
382
344
301
267
331
314
299
333
286
307
386
437
595
918
1155
1308
937
637
417
355
354
314
370
335
356
426
496
786
1229
1897
2463
2258
1571
932
524
405
354
313
258
303
283
235
263
266
257
253
271
238
252
269
237
238
282
237
232
253
227
240
253
243
225
225
228
254
249
269
231
259
256
251
258
256
265
278
307
324
394
494
702
1126
1813
2291
2142
1513
889
535
385
335
295
261
282
277
253
257
297
253
245
259
252
262
255
269
265
315
367
456
583
499
402
333
278
272
244
258
259
239
215
238
278
223
201
199
218
229
209
221
225
238
220
246
227
220
232
219
231
192
205
195
241
222
226
203
225
222
231
235
209
241
233
238
228
225
233
226
223
214
224
242
249
191
237
215
214
228
219
227
205
220
236
225
232
225
232
214
238
240
219
230
236
257
258
270
333
328
529
775
914
882
732
532
363
282
269
252
238
261
235
235
227
237
245
198
219
235
218
229
217
222
208
233
223
243
236
251
211
214
221
229
220
227
218
227
247
233
286
313
366
488
516
480
389
293
307
267
251
268
226
273
272
263
286
283
323
346
394
493
548
776
1131
1605
1896
1604
1143
662
442
336
310
273
266
292
260
273
235
282
270
255
254
253
249
281
297
304
289
320
329
426
526
809
1209
1696
2226
2578
2957
2845
2244
1356
791
559
440
333
331
312
295
272
282
277
247
241
276
240
234
262
246
226
247
239
221
225
203
218
210
256
247
241
243
244
235
239
245
267
264
260
271
263
275
234
265
298
239
234
252
333
278
317
309
346
364
367
350
455
473
605
710
968
1453
2561
4420
7070
8777
7879
5251
3394
2413
2444
2824
2757
2021
1341
876
609
456
438
393
335
298
346
312
338
289
255
272
256
249
262
224
249
264
220
265
245
244
266
225
210
238
253
240
233
238
229
236
248
224
227
234
225
233
230
229
215
226
241
221
206
208
239
216
239
222
232
238
233
221
241
251
218
264
228
213
217
217
225
238
209
238
261
225
215
244
257
259
213
239
256
294
264
275
319
363
448
610
692
765
591
539
451
433
425
467
528
619
758
930
1333
2009
3247
5604
8773
11294
10310
7013
4099
2408
1597
1152
831
682
588
454
415
438
380
334
295
312
292
289
293
297
277
270
240
281
259
297
271
276
263
284
308
351
395
515
641
738
775
807
832
574
452
337
313
326
303
312
350
332
441
517
756
1246
1855
2296
2144
1471
901
577
428
332
326
282
269
304
272
243
277
242
236
249
251
214
222
218
216
233
225
235
238
233
217
210
237
219
235
236
230
216
218
194
216
228
217
226
223
215
236
264
288
273
256
257
253
255
248
232
275
256
262
282
298
373
466
681
1077
1628
2126
1889
1372
777
510
405
315
296
275
252
267
225
238
236
226
223
201
265
228
229
262
231
237
224
224
225
269
297
318
260
236
222
194
234
216
261
220
192
248
212
241
238
209
210
226
237
213
219
212
207
197
216
235
216
209
220
178
231
230
223
233
223
256
268
209
231
230
241
220
254
232
228
221
253
253
263
243
282
267
266
288
319
309
330
333
325
317
384
426
457
491
605
675
835
1153
1823
3002
5630
9001
11758
11263
7632
4556
2479
1412
996
830
736
669
695
799
1058
1325
1416
1215
938
654
475
429
429
429
409
420
431
451
503
528
656
893
1149
1364
1427
1521
1711
2668
4206
6548
8241
7514
5440
3271
2202
1748
2032
2885
4694
6916
8846
8051
5885
4157
4004
5220
7097
8109
6882
4508
2754
1863
1556
1211
986
773
671
609
565
545
619
682
834
1078
1453
1675
1457
1053
655
520
383
359
307
316
286
324
293
294
243
284
272
288
297
274
292
323
397
513
673
860
862
779
552
472
490
517
733
980
1361
1302
1079
735
461
359
294
276
240
248
257
248
233
207
233
240
218
207
216
227
218
234
197
194
220
233
203
210
237
252
195
222
197
206
211
193
197
206
185
187
232
214
235
225
212
222
209
232
208
174
180
190
216
205
217
202
216
180
232
206
216
192
183
205
187
182
199
202
193
232
180
211
184
224
195
192
199
187
215
210
205
201
216
196
202
212
237
213
182
205
204
203
217
202
192
236
214
182
220
207
224
202
192
205
217
204
239
239
240
223
230
228
214
237
232
234
247
290
259
286
308
348
361
332
399
437
534
667
956
1567
2621
4062
5041
4808
3357
2136
1414
1190
1366
2020
3160
4433
4797
3751
2409
1400
852
576
497
419
373
331
338
315
262
300
273
282
271
246
211
208
231
227
247
217
247
219
228
241
233
246
271
249
244
258
329
390
542
641
706
614
459
340
281
266
241
239
250
222
231
280
315
360
504
599
705
700
498
392
310
261
239
226
217
229
201
211
211
214
189
212
217
214
212
234
200
211
212
215
240
260
254
278
324
451
571
853
1037
878
708
554
518
585
720
815
724
531
411
303
295
301
328
399
539
767
858
800
601
410
322
276
277
277
260
265
228
244
241
280
243
253
264
285
316
303
410
576
814
1121
1318
1319
1026
828
762
969
1426
2340
3481
4346
3754
2702
1593
913
588
507
368
352
330
296
287
324
260
303
362
428
563
823
958
843
633
467
332
291
239
252
240
258
199
196
196
198
205
236
191
195
197
196
206
199
194
229
218
205
201
205
219
229
244
202
234
215
240
210
233
240
234
266
290
360
471
678
895
975
790
554
385
287
239
265
256
245
228
259
202
211
214
215
217
215
220
232
234
250
222
245
204
247
254
262
241
302
275
310
358
378
487
694
1058
1769
2667
3249
3014
2123
1346
860
632
578
591
737
1130
1790
2514
2864
2630
1701
1116
701
500
375
324
331
357
361
386
539
690
840
829
682
486
388
302
348
314
251
270
243
251
257
259
252
280
323
447
636
680
655
551
365
294
248
255
211
234
249
246
238
238
224
204
183
206
191
169
206
211
189
196
180
189
179
193
182
195
202
215
236
272
278
251
245
183
164
211
209
202
191
224
190
196
201
191
163
205
187
212
214
226
251
268
255
234
202
204
200
215
181
192
223
224
211
225
271
264
344
437
522
610
561
584
600
692
861
836
636
460
342
326
277
306
282
229
224
221
194
231
227
211
226
272
262
199
229
192
187
195
208
200
187
224
210
213
221
200
238
244
321
344
422
453
405
354
300
262
257
311
320
386
440
384
423
311
295
260
275
331
400
589
712
849
818
561
412
306
232
256
232
234
224
240
237
235
226
209
224
250
306
363
362
330
271
221
217
173
209
186
221
186
208
217
203
208
215
205
196
174
164
172
197
182
165
171
216
186
144
170
166
186
179
168
201
201
153
202
172
179
191
205
173
191
170
192
193
223
202
229
328
359
498
599
561
461
321
262
232
193
218
177
190
210
194
172
181
199
206
194
193
186
153
204
192
179
183
175
164
184
166
171
192
185
196
185
184
210
211
223
223
223
237
307
362
441
435
420
359
335
279
276
243
242
204
207
209
233
188
190
211
234
291
314
373
378
303
261
231
233
189
185
187
233
199
241
231
307
328
349
348
330
262
238
191
186
184
189
179
190
177
158
189
176
171
169
195
161
184
203
179
189
204
214
220
221
191
196
186
201
206
172
201
179
197
171
184
192
196
215
192
202
212
195
229
244
240
219
200
230
168
184
188
186
194
194
234
256
310
331
344
263
243
207
165
168
196
199
190
188
193
237
260
280
278
299
318
303
313
289
251
208
201
172
182
184
216
220
216
250
222
209
215
188
242
187
194
185
177
195
186
177
182
188
183
185
185
206
226
198
247
226
213
186
164
191
178
188
164
172
156
181
170
164
184
168
162
180
186
177
159
186
169
171
168
191
161
188
194
187
179
178
186
169
187
171
187
172
163
196
177
204
205
255
231
240
246
232
257
222
247
206
228
207
309
307
382
365
353
294
253
246
233
196
186
196
194
212
203
186
194
204
183
178
176
187
192
181
185
182
196
186
192
192
169
195
185
181
191
192
167
195
183
172
188
197
183
176
186
171
176
169
177
163
164
196
208
191
182
204
190
197
181
186
209
183
194
210
191
212
237
246
280
340
455
612
792
861
728
572
437
351
409
497
613
693
598
487
367
322
320
324
392
353
368
323
297
287
249
266
238
253
299
285
339
379
393
504
655
918
1382
1995
2636
2899
2426
1823
1133
715
505
408
348
328
315
266
300
296
339
335
303
300
352
396
409
453
586
810
1178
1850
2739
3365
3297
3446
3587
4335
4872
4408
3161
1864
1143
738
621
499
483
568
651
811
914
781
670
530
386
344
284
277
293
259
266
265
235
233
212
241
230
245
223
235
227
262
265
259
262
250
284
318
354
353
387
490
592
889
1321
2179
3667
5236
6038
5283
3554
2147
1290
807
597
466
379
345
313
309
285
269
245
238
233
224
217
213
214
209
200
211
225
190
220
266
307
332
293
265
228
236
238
219
261
295
363
415
444
401
283
257
203
259
205
171
207
209
200
220
207
204
213
177
198
203
197
210
189
214
221
204
253
248
282
313
412
628
905
1286
1477
1310
979
680
450
331
281
247
222
222
204
214
231
191
260
257
302
408
475
465
463
449
441
491
516
420
333
301
295
245
208
217
234
189
190
200
170
203
202
182
215
176
170
174
207
179
173
196
185
184
200
268
251
295
348
354
393
458
543
479
413
322
257
192
205
192
201
184
201
190
190
178
180
172
164
189
182
196
215
236
286
315
423
483
458
352
323
241
251
225
186
216
178
223
195
221
188
214
192
233
222
251
273
334
436
574
809
1024
871
685
536
453
443
369
325
281
247
182
213
196
202
221
222
193
234
222
282
311
412
537
668
701
632
481
374
317
247
250
303
355
433
553
589
477
409
289
251
216
208
224
234
259
267
285
254
216
205
209
206
196
198
180
209
228
196
202
193
187
201
210
205
193
227
228
217
272
355
476
612
847
789
756
588
377
387
384
397
468
582
596
505
427
338
295
264
259
260
296
308
339
410
537
711
1049
1515
1973
2400
2319
1961
1469
1056
846
891
1086
1183
1253
1065
798
622
525
547
611
812
932
966
872
708
733
793
1101
1748
2764
4148
5137
4942
3746
2472
1558
1138
1002
891
796
701
630
553
514
571
514
499
413
437
490
460
556
619
820
1204
1768
3017
4754
6822
7951
6907
4936
2921
1744
1055
754
568
507
444
385
347
339
309
320
288
297
261
305
320
347
397
463
561
550
451
398
310
303
244
234
250
305
304
378
462
530
512
438
409
454
444
488
416
325
260
246
229
223
218
228
238
219
271
256
254
296
350
395
366
394
307
334
334
426
617
758
834
790
641
475
435
389
413
439
603
879
1179
1626
1948
1752
1353
976
689
474
389
311
273
262
292
255
284
263
258
278
306
342
411
459
480
412
389
368
390
384
430
491
682
900
1381
2143
2954
3412
3097
2568
2098
2204
2610
2934
2758
2352
2071
2001
1920
1686
1322
1005
716
589
589
650
666
775
1047
1613
2615
4228
5929
6971
6169
4312
2756
1701
1168
862
626
506
448
389
304
324
315
291
273
263
253
265
239
216
235
234
225
250
221
214
221
222
224
225
232
234
224
239
271
252
317
382
519
596
718
703
591
452
405
363
363
344
400
511
655
1132
1698
2391
2816
2552
1952
1263
1023
870
945
1139
1080
1104
847
587
436
319
312
258
286
277
287
343
462
564
666
664
546
434
332
272
233
231
215
197
199
211
198
181
192
177
190
207
204
228
192
205
215
249
224
274
330
473
650
762
887
793
623
536
337
349
269
280
274
316
325
340
332
264
260
254
263
343
439
586
807
854
873
630
468
368
286
227
253
255
263
273
256
235
219
229
211
216
224
248
237
259
286
301
300
381
516
667
1066
1666
2324
2704
2829
2355
1709
1281
853
563
450
368
330
328
310
327
317
366
477
639
815
944
998
812
623
460
323
270
265
228
232
251
229
204
217
211
244
243
220
210
245
238
248
254
266
324
417
507
760
1021
1193
1248
1015
843
629
609
647
685
723
697
658
587
557
646
911
1305
1782
2223
2260
1961
1803
1907
2596
3361
3288
2765
2035
1417
988
752
647
639
717
946
1127
1226
1176
1295
1439
2004
2588
2822
2561
1970
1190
849
582
433
361
325
288
290
276
259
246
251
232
278
257
243
271
276
222
228
202
220
242
286
300
311
316
336
284
316
272
259
270
259
296
311
405
454
477
497
489
569
557
599
533
540
504
521
659
1097
1680
2451
3371
3739
3188
2577
1871
1206
789
573
460
411
329
317
314
359
317
327
286
265
223
216
188
238
212
204
206
194
206
230
237
265
290
460
481
519
510
421
335
271
192
209
199
197
217
196
186
205
249
266
264
257
312
268
333
396
474
535
509
483
461
491
500
559
632
590
602
544
639
728
876
1069
1047
810
648
502
397
384
381
377
416
422
431
376
400
456
614
950
1227
1700
1682
1408
996
698
554
375
330
310
337
356
280
370
367
473
702
918
1306
1437
1337
986
711
469
436
333
330
307
378
371
479
687
964
1252
1223
1070
886
753
833
968
949
751
613
432
464
465
514
634
710
676
584
472
358
316
330
335
349
383
349
335
281
280
273
258
266
296
280
355
396
496
711
999
1556
2356
3088
3396
2834
1927
1225
789
523
436
317
317
328
316
266
253
260
263
306
304
373
437
521
488
437
379
391
411
432
467
378
319
352
359
373
392
325
301
289
308
292
305
325
378
507
659
1045
1294
1477
1257
981
653
422
335
307
286
262
252
286
318
316
386
506
699
754
760
730
802
888
1038
1096
1046
938
832
671
557
524
540
554
549
538
625
722
859
865
732
590
560
498
468
432
457
381
410
424
573
626
605
609
671
741
961
1259
1471
1634
1552
1310
862
628
459
390
334
353
371
471
665
815
1035
1166
925
718
548
506
477
459
645
988
1425
1982
2285
2168
1634
1135
772
512
417
370
321
258
280
294
247
276
294
288
331
360
332
447
514
659
806
850
891
1017
1277
1761
2415
3100
3068
2545
1839
1267
851
705
704
764
972
1124
1298
1271
1094
920
899
892
800
686
498
393
343
294
263
318
318
292
352
346
363
467
611
850
1058
1170
1081
840
687
631
662
874
1234
1705
2156
2279
2039
1740
1571
1379
1209
848
621
418
337
290
284
260
227
238
222
209
210
187
194
190
228
224
198
206
235
256
261
290
279
306
264
265
329
357
482
584
693
684
579
441
342
272
226
201
196
230
215
230
208
224
245
268
301
316
298
293
267
241
194
214
202
203
194
238
247
287
268
281
251
301
315
395
463
458
424
360
290
231
233
231
241
268
301
312
342
366
416
484
574
657
727
793
783
714
662
672
581
447
358
300
262
255
212
198
195
210
206
213
219
237
284
315
418
537
645
645
546
488
440
449
554
586
611
556
422
349
270
284
257
291
355
452
609
712
702
630
475
418
403
420
489
533
487
410
329
305
234
240
240
243
213
205
194
202
214
207
200
210
258
306
379
393
333
327
272
244
265
233
243
258
326
402
512
724
1017
1345
1304
1158
901
732
675
689
661
619
579
480
414
443
473
494
583
582
515
494
391
308
277
245
228
213
210
209
208
220
213
215
215
229
215
248
272
289
326
474
701
882
1168
1377
1407
1292
1071
764
505
392
282
281
294
258
298
334
327
338
288
246
221
245
231
267
333
390
428
483
467
372
320
261
237
267
317
411
555
709
905
951
731
583
400
311
252
249
236
222
206
188
208
189
169
184
179
186
211
214
206
226
246
327
443
587
712
745
612
437
324
286
252
220
206
175
182
192
240
254
276
327
310
252
234
193
188
200
166
129
146
159
175
176
151
180
178
160
144
162
184
164
171
220
263
252
277
283
307
277
285
243
237
207
234
218
239
226
208
208
199
181
184
204
181
195
260
282
348
463
564
614
492
374
322
292
208
209
179
170
193
165
171
178
192
204
191
236
262
293
360
430
558
573
596
519
516
529
570
611
642
668
642
535
481
408
359
270
246
213
248
263
235
258
287
327
467
552
775
972
1077
1153
1035
972
973
1046
893
719
530
490
430
392
420
384
416
462
549
660
677
660
539
435
398
422
496
540
567
712
831
801
774
665
510
396
343
368
366
447
491
497
504
416
400
423
415
526
591
522
445
418
298
302
304
358
375
400
385
397
361
278
263
294
341
436
563
615
560
445
297
288
211
214
203
204
174
175
192
161
165
181
169
184
202
190
249
243
214
178
196
187
154
183
175
179
184
197
227
209
220
194
177
162
162
162
173
158
151
153
158
154
170
143
154
158
175
183
210
194
218
258
254
283
255
215
181
158
168
150
177
154
182
160
174
150
137
158
135
163
155
161
143
187
165
155
168
181
174
176
180
179
190
171
177
185
162
198
184
179
159
169
194
186
220
290
331
426
590
653
657
585
591
513
477
443
426
414
352
299
220
216
189
210
190
182
220
223
238
279
280
268
249
244
228
236
294
338
379
400
432
416
427
373
352
341
360
432
641
784
902
898
805
632
440
325
284
227
223
205
226
206
237
326
343
425
392
341
284
277
275
326
443
552
689
702
591
499
404
279
268
226
257
247
344
366
481
539
577
477
455
390
285
261
246
215
216
204
212
213
232
254
274
311
279
251
208
191
178
166
171
196
187
225
261
268
365
454
575
679
649
537
464
281
253
205
213
221
200
196
204
190
183
170
186
166
167
169
152
162
154
176
192
167
158
152
156
136
155
179
172
182
186
160
158
164
166
167
171
170
182
187
181
237
197
228
273
220
207
193
196
245
272
334
440
511
482
442
333
251
237
229
198
220
209
252
262
233
178
173
175
169
168
166
150
171
152
172
156
173
170
156
160
181
201
191
186
211
204
255
359
454
549
652
642
588
524
444
424
362
352
343
330
353
391
431
384
363
315
271
236
238
210
267
278
345
408
553
671
662
641
490
414
328
284
356
402
478
475
439
347
264
250
204
219
188
158
182
184
203
198
169
178
193
180
198
188
213
234
267
315
368
505
569
645
680
743
690
592
521
443
325
258
274
224
213
193
194
189
188
178
176
170
197
166
181
209
204
200
212
214
252
251
268
317
393
605
874
1283
1607
1718
1491
1048
687
476
317
286
232
214
203
186
189
179
180
197
177
185
209
214
205
208
194
212
191
197
209
235
302
313
369
410
367
287
257
302
248
245
237
278
341
353
384
409
348
299
255
207
195
175
192
186
182
202
218
236
269
334
422
488
573
572
570
508
447
547
599
671
645
528
471
403
462
446
419
444
344
292
241
239
210
181
191
163
154
165
157
159
188
173
165
174
174
166
201
211
235
215
223
215
228
268
294
368
429
491
494
503
465
449
415
386
474
587
773
916
975
820
640
472
388
297
302
308
322
330
333
412
377
367
456
410
411
424
407
469
435
354
292
247
235
235
262
253
234
228
214
196
185
180
205
197
184
180
180
175
207
190
196
231
211
271
338
453
579
689
676
634
572
506
503
514
516
425
387
322
266
245
243
204
198
239
236
239
225
230
321
348
456
504
503
449
356
290
290
225
265
283
283
320
307
287
240
211
175
158
164
187
160
164
168
163
182
169
182
128
156
164
165
182
218
208
209
204
196
211
192
191
176
165
160
172
179
180
188
176
215
247
273
306
342
347
336
332
340
361
419
428
456
472
480
515
663
799
1016
1139
1068
786
679
475
392
345
375
359
361
308
360
309
291
295
368
480
629
840
1047
1044
967
923
721
633
464
352
314
228
212
205
184
153
179
175
179
173
141
163
174
175
156
157
173
184
199
218
177
190
141
133
142
143
140
173
184
187
229
234
246
249
242
216
167
178
153
176
152
187
156
159
176
161
166
190
164
147
157
169
144
144
144
159
161
155
158
151
130
145
155
170
130
163
155
147
164
161
162
176
144
176
180
164
150
173
195
240
241
263
316
296
278
248
226
231
209
247
285
307
395
391
349
269
269
202
183
169
176
181
180
209
249
226
211
185
163
180
191
154
161
168
176
154
203
223
265
278
262
316
330
328
306
247
267
201
197
159
190
200
218
260
310
351
319
286
240
186
187
167
169
185
173
157
158
173
187
173
172
176
173
176
197
198
228
276
286
308
292
263
272
273
321
451
470
498
499
367
355
380
392
367
302
271
258
254
175
212
219
205
221
294
325
314
316
335
260
242
245
235
201
214
222
222
259
259
271
303
355
321
314
402
393
449
427
478
465
441
433
450
546
746
1029
1157
1252
1034
851
645
490
432
440
417
364
327
305
309
266
286
272
319
384
429
660
856
1115
1433
1583
1419
1151
898
640
504
472
415
359
344
281
239
251
207
229
223
225
238
281
204
231
266
258
266
255
264
303
317
383
393
498
603
656
672
719
855
1032
1218
1323
1164
968
788
685
723
784
843
763
639
506
482
418
461
412
478
520
495
469
375
366
275
272
266
257
206
219
250
252
272
319
346
408
418
432
470
504
451
382
366
327
266
211
211
181
173
181
168
177
164
167
163
166
176
145
152
162
166
166
158
198
152
168
151
173
173
206
226
257
271
258
307
262
252
229
276
309
392
452
557
584
497
447
392
266
236
207
209
188
176
227
232
230
272
287
250
264
256
247
215
228
244
268
301
341
433
531
628
701
767
771
718
713
684
662
621
575
576
503
477
490
458
497
495
511
486
533
458
387
390
363
358
309
284
229
231
203
231
203
205
219
213
189
195
207
207
208
255
215
205
193
159
161
169
176
151
170
170
186
169
214
239
295
317
381
415
401
420
434
492
581
631
604
546
459
426
463
473
505
420
427
343
334
292
313
348
322
374
371
299
340
333
347
392
494
587
570
538
541
528
636
781
831
860
694
535
482
352
370
377
368
400
402
369
347
341
307
245
207
228
220
212
182
201
208
216
180
206
225
255
319
376
455
543
571
623
527
484
417
344
315
290
320
297
310
335
355
351
450
511
614
705
723
613
543
438
374
269
260
214
234
216
213
248
301
394
428
491
587
597
622
574
446
399
318
284
286
244
257
261
273
282
322
459
636
763
876
814
754
632
574
509
399
337
288
268
260
255
271
292
326
285
266
268
247
199
207
242
232
238
253
250
234
185
245
240
229
258
331
438
494
575
651
662
651
442
432
461
409
409
385
318
255
257
193
213
212
213
189
236
226
220
212
183
169
211
190
167
194
202
205
250
266
311
261
321
361
451
448
383
355
317
298
263
284
305
319
377
332
326
323
293
276
242
195
196
179
172
189
182
167
157
185
205
243
258
276
265
247
223
230
230
242
233
266
278
277
221
218
273
274
327
364
431
422
450
453
487
548
649
751
773
870
900
865
826
742
628
555
439
375
336
254
246
228
195
212
175
204
204
214
258
235
234
233
207
187
170
174
143
149
175
163
148
167
168
217
242
209
245
238
285
299
317
298
301
324
337
338
438
501
476
520
549
567
582
708
652
651
583
489
349
302
248
248
248
341
352
398
381
373
307
270
225
216
230
245
329
316
382
370
364
295
247
215
224
181
180
195
183
190
176
180
204
206
242
291
344
383
466
496
497
373
355
303
236
229
265
251
233
200
195
230
225
234
281
313
368
341
345
304
265
278
291
281
273
289
292
273
291
267
270
242
257
266
268
334
382
513
683
1005
1328
1579
1683
1813
1649
1653
1478
1276
1042
817
635
491
426
345
321
302
299
239
251
216
216
224
230
278
307
445
520
726
725
759
620
528
412
277
262
250
249
226
229
215
253
249
272
256
277
298
319
400
449
528
579
495
464
380
315
247
248
205
201
217
248
250
308
320
316
406
383
357
327
308
267
222
203
210
198
214
221
244
231
255
234
211
200
195
183
156
135
173
169
148
184
204
212
226
273
297
263
262
290
303
363
332
306
260
218
192
208
206
217
233
230
270
235
234
211
219
177
152
174
189
174
211
202
241
264
254
214
191
186
191
197
168
175
181
185
202
187
163
189
207
246
323
402
466
456
396
308
250
223
207
213
195
211
206
213
206
207
176
221
185
172
187
172
146
142
137
130
180
148
165
191
165
230
165
201
175
153
159
157
162
176
166
178
208
236
261
290
261
262
235
206
232
203
195
250
231
237
253
283
271
300
305
295
270
231
232
231
245
240
302
281
347
479
710
846
1038
1115
1079
1112
970
833
764
646
601
475
388
348
268
278
281
316
358
430
596
696
689
821
765
675
582
558
481
541
563
599
653
562
571
528
505
500
510
407
440
345
350
279
261
247
226
248
250
258
325
335
361
317
282
263
247
250
264
290
293
365
455
589
637
754
800
863
808
785
663
526
426
305
300
329
290
311
292
267
229
242
231
252
279
354
323
354
295
265
297
344
383
411
485
451
470
402
502
539
610
643
576
488
507
521
540
600
514
443
396
312
277
272
267
294
353
417
543
628
803
756
733
563
435
308
267
240
211
221
192
209
250
246
311
274
299
290
229
266
271
334
431
546
628
713
745
601
522
431
341
356
384
470
609
719
875
928
841
673
500
380
313
255
268
246
268
281
278
348
393
402
443
347
295
291
234
215
194
219
183
210
256
282
330
358
355
342
354
340
369
370
344
380
350
408
464
382
424
460
529
543
583
656
609
532
502
407
362
281
269
245
233
256
253
274
321
385
470
529
466
399
368
341
241
275
252
274
331
356
397
500
580
663
646
597
513
441
369
342
289
300
312
352
378
392
378
326
284
234
273
280
285
355
408
336
404
309
274
234
232
202
204
179
175
208
221
245
232
294
321
350
356
356
343
344
300
367
335
418
427
440
430
465
510
514
526
509
462
370
271
267
262
234
249
278
281
321
330
289
277
250
228
216
184
201
199
222
204
228
229
208
199
194
205
211
231
263
279
275
285
302
282
334
334
361
330
315
318
378
400
446
452
440
387
373
378
343
317
314
294
306
307
322
265
262
242
219
209
236
248
278
304
370
400
491
449
466
438
330
293
250
221
209
249
246
256
232
249
226
217
266
278
344
380
323
324
248
237
209
237
236
257
277
303
302
327
280
281
233
206
213
183
219
183
202
201
224
265
267
300
316
290
279
233
234
192
192
184
198
215
297
272
290
273
267
292
340
357
419
505
502
544
631
621
555
486
447
433
460
471
483
477
461
455
459
446
385
350
287
309
389
491
539
595
582
531
496
450
463
488
524
510
484
518
593
639
774
786
738
627
487
418
320
312
248
271
275
317
334
406
343
409
426
549
608
599
608
582
555
548
452
384
313
318
293
299
308
344
415
515
500
502
447
400
315
273
275
297
320
413
473
555
668
633
522
454
352
298
218
214
215
187
178
194
208
220
202
197
154
186
199
178
170
195
172
203
247
336
383
448
449
472
439
365
275
248
217
181
177
205
210
207
235
267
334
346
325
315
284
276
200
217
249
264
267
279
302
292
325
297
322
323
366
338
295
237
219
198
201
197
196
200
174
227
203
178
191
166
144
152
166
131
159
171
166
178
200
231
259
272
224
237
191
182
162
151
154
164
146
147
146
153
162
118
135
133
153
148
146
140
135
130
170
156
150
151
155
143
175
167
196
185
201
214
204
206
213
193
233
250
268
338
431
546
659
695
835
770
626
610
586
555
548
558
530
508
437
334
292
274
262
226
228
240
226
245
238
297
310
421
503
597
754
864
830
704
583
456
373
343
379
400
451
548
635
673
634
636
586
518
524
520
536
562
620
538
534
499
512
496
504
526
519
426
399
342
278
265
293
322
333
322
370
374
336
352
344
358
380
365
336
320
305
259
216
195
187
149
183
160
176
165
200
172
168
162
200
216
196
224
279
286
306
266
249
270
255
244
280
257
250
284
295
304
288
270
280
254
242
218
271
190
192
172
182
212
184
254
291
279
255
291
280
277
327
359
373
379
347
288
242
238
186
198
163
189
200
206
217
237
234
237
254
279
245
251
246
244
224
225
264
217
225
198
183
184
170
161
183
161
186
170
160
164
164
170
182
145
151
169
163
172
193
166
193
183
187
175
193
240
228
233
233
239
227
196
179
186
162
150
152
152
198
178
199
210
194
209
190
181
179
153
149
162
171
168
157
176
162
133
169
137
172
181
166
176
176
163
170
225
239
276
307
311
314
281
284
292
231
221
188
182
173
193
204
216
244
287
344
344
342
372
345
348
275
210
194
183
199
192
181
192
174
177
172
173
147
153
159
159
136
151
157
163
195
180
212
214
235
218
213
219
195
173
186
209
202
227
237
228
214
216
233
227
208
197
203
210
196
208
221
283
302
395
466
570
629
688
553
495
419
388
403
407
513
665
819
1012
1117
953
866
656
534
425
421
375
334
344
353
376
445
481
525
583
532
487
446
426
397
383
351
304
263
216
262
214
207
189
177
187
182
175
181
175
183
195
191
208
187
176
194
170
193
191
183
182
216
229
218
242
253
214
219
227
237
181
206
181
186
227
201
194
169
160
171
134
152
177
185
176
172
198
200
192
182
242
229
200
273
218
257
316
372
423
461
459
452
452
386
341
348
328
274
256
267
268
212
207
199
220
241
270
249
260
263
271
232
252
214
189
220
232
202
250
230
267
249
235
221
207
200
248
243
272
347
354
310
304
321
285
275
284
309
238
229
211
187
203
156
162
191
198
180
217
258
242
254
271
239
267
236
229
222
228
238
296
278
260
306
247
295
334
362
427
551
605
569
509
467
342
286
267
227
259
272
230
245
238
248
253
223
223
226
267
295
281
265
269
242
231
201
177
211
207
207
251
278
288
288
283
227
236
222
220
249
226
241
275
274
236
254
238
207
241
261
248
276
261
257
235
244
208
203
192
191
201
203
187
205
175
163
180
210
220
241
269
304
450
504
638
663
727
740
556
528
426
336
284
220
198
196
203
193
190
184
162
152
158
169
184
172
192
214
225
249
248
263
301
324
275
274
230
210
187
205
193
201
150
167
149
160
168
147
182
182
172
192
233
249
274
298
253
248
266
229
227
255
276
298
358
399
365
399
366
324
327
272
271
235
222
242
253
245
271
309
317
304
267
255
269
221
245
272
284
275
367
351
395
364
340
328
244
254
222
181
190
200
246
224
199
198
177
152
169
180
170
183
163
236
241
220
238
232
240
256
216
206
205
217
223
246
267
348
398
389
435
389
394
322
274
268
268
256
255
288
293
326
250
239
225
200
182
191
196
188
254
274
250
256
260
288
204
171
177
177
183
166
176
206
203
211
198
199
219
186
169
163
190
208
174
189
198
196
227
230
243
259
256
244
238
264
235
228
215
202
187
186
185
171
184
151
135
186
149
154
140
149
156
150
136
169
185
200
231
244
240
216
234
177
217
247
205
258
282
276
278
344
357
344
376
407
386
373
333
296
277
274
267
276
256
371
363
501
635
785
981
1026
953
828
726
688
567
562
468
388
332
287
278
266
259
225
254
220
194
187
200
216
229
215
273
276
289
301
299
321
312
311
336
317
307
265
261
217
220
185
188
209
208
217
232
250
254
279
285
268
245
232
200
183
185
207
218
236
250
229
251
228
221
214
239
230
281
281
290
286
291
264
293
396
464
502
469
485
418
366
329
318
330
324
286
299
244
293
263
306
296
267
268
213
202
202
204
186
202
207
198
211
212
210
183
164
178
187
165
193
170
198
196
190
194
233
221
221
252
246
257
244
221
260
292
294
309
292
262
270
255
210
219
219
227
223
219
198
169
211
236
221
247
225
226
267
270
276
263
259
244
204
172
224
191
194
211
215
221
287
282
299
285
277
290
258
264
227
213
149
162
202
205
167
188
168
213
188
215
202
189
180
177
196
174
172
153
178
167
174
195
185
204
168
184
178
147
155
151
140
162
155
162
185
177
207
221
243
222
223
219
212
216
226
218
200
243
273
309
329
279
271
264
208
225
195
204
222
223
249
244
268
255
198
240
206
211
223
201
217
212
207
217
217
169
198
227
219
273
289
312
305
305
315
315
287
260
241
215
202
187
203
187
229
187
202
208
211
193
163
201
196
200
222
202
205
187
203
195
216
213
249
275
337
362
433
396
319
304
264
298
297
289
320
299
249
263
251
217
264
235
169
172
185
214
191
201
255
304
305
335
332
310
263
287
241
207
196
186
193
183
166
167
185
196
227
231
247
263
230
202
161
176
175
154
171
167
164
181
162
147
149
130
174
179
157
194
165
179
165
192
184
221
227
239
278
314
299
260
233
234
211
169
171
161
161
170
166
188
167
161
164
173
197
225
209
263
292
338
377
369
339
361
306
282
265
252
277
266
352
374
459
588
659
631
546
475
380
322
308
269
253
257
271
293
305
252
259
265
264
273
264
239
236
234
212
208
229
197
272
280
296
319
348
334
363
348
327
295
266
256
223
217
205
234
192
207
245
285
302
356
304
304
297
305
346
331
379
418
473
447
430
365
303
284
249
202
189
184
210
237
265
258
277
277
291
293
295
324
279
332
319
304
313
342
279
301
322
324
392
364
398
362
388
324
241
242
218
198
188
171
186
182
179
156
168
150
197
173
161
198
223
245
268
289
272
315
280
248
242
213
165
179
170
178
175
169
171
167
155
159
172
179
192
198
178
188
209
178
164
159
148
150
173
179
189
195
181
183
220
173
188
207
188
174
159
155
151
145
167
145
167
159
148
136
165
156
161
144
168
175
180
176
196
165
222
220
294
247
300
314
339
365
319
321
303
264
245
222
222
223
207
190
192
213
199
204
242
255
295
264
242
236
223
182
196
187
183
194
175
201
219
221
204
201
204
163
159
179
159
189
166
185
201
184
225
227
252
269
254
249
204
176
172
167
169
156
133
167
168
164
176
183
175
185
182
161
178
151
143
152
147
157
163
176
192
162
175
187
183
195
180
226
237
269
283
304
331
286
288
265
294
302
311
282
298
278
243
226
190
205
172
183
195
186
195
209
180
171
167
169
164
190
151
159
188
188
189
204
193
188
197
207
242
236
283
363
355
341
334
270
261
277
267
261
212
223
224
211
232
237
220
198
250
237
298
283
288
326
400
489
529
623
623
597
557
520
486
351
346
322
289
266
272
279
296
330
352
415
433
498
444
423
311
292
255
238
214
188
199
201
218
214
230
212
248
260
255
351
408
458
551
628
637
685
740
675
663
630
525
529
425
356
365
314
349
363
365
409
402
484
433
397
391
337
248
278
254
255
258
304
316
368
384
358
355
363
354
398
374
365
364
401
320
302
303
303
337
379
417
471
533
572
683
712
732
783
750
717
663
552
522
450
360
326
325
283
273
253
271
233
281
253
280
275
269
240
272
229
245
224
237
258
289
289
308
369
311
328
297
339
408
420
464
483
529
524
504
513
478
392
443
501
523
446
455
442
380
406
429
513
560
500
496
449
400
340
339
315
245
238
245
274
338
295
302
278
246
223
230
221
217
238
251
234
281
303
302
280
272
261
222
217
210
212
235
267
228
251
251
224
240
235
243
205
190
211
242
215
201
183
163
158
181
150
164
169
190
190
179
174
165
187
165
171
206
226
233
232
297
298
250
278
281
220
215
213
208
233
223
209
203
233
234
290
273
252
226
222
225
232
198
191
179
201
198
177
172
172
168
181
205
226
219
234
259
317
295
280
300
259
231
229
210
235
222
190
196
196
233
246
213
204
195
173
179
157
162
176
195
198
179
179
211
176
215
199
187
205
226
200
193
215
235
229
225
272
253
249
317
319
313
347
293
298
233
251
273
291
266
295
276
243
235
193
165
197
144
199
162
203
190
219
231
245
249
245
276
254
231
201
231
202
233
206
240
234
257
233
243
279
264
296
272
321
361
328
319
272
256
219
201
179
174
159
169
179
163
169
163
170
149
166
171
162
168
157
144
153
172
164
161
173
155
170
182
182
220
222
223
263
268
275
244
221
211
211
210
214
210
234
231
258
222
204
196
201
188
166
180
143
174
163
156
164
155
187
190
180
182
183
179
229
224
255
256
240
208
197
169
197
174
173
165
178
154
162
158
171
171
170
157
167
163
177
157
164
148
137
139
162
140
126
109
131
143
129
122
150
134
152
152
149
154
142
146
187
162
157
178
154
157
158
149
139
170
144
146
180
190
200
181
197
173
227
221
205
213
150
173
157
176
170
181
168
174
166
167
165
176
172
165
161
177
176
172
160
173
127
136
172
154
147
174
158
182
166
170
159
168
166
194
177
180
203
206
202
204
182
215
196
212
183
189
178
182
175
214
196
244
254
275
248
255
230
243
235
205
188
178
186
215
218
200
219
198
185
225
204
144
192
203
166
200
177
173
169
167
177
168
152
171
169
163
170
182
181
196
231
216
257
263
272
329
298
291
328
308
342
365
380
416
383
328
378
324
336
290
267
247
246
243
238
289
271
277
304
292
281
299
279
269
239
230
200
206
229
231
229
213
219
232
193
231
273
243
271
284
282
264
240
264
229
196
203
201
214
204
229
218
250
241
281
301
303
291
320
274
216
230
209
168
195
164
197
211
229
230
271
290
280
289
257
274
292
293
292
299
244
249
236
214
175
177
194
198
182
187
183
216
195
226
210
194
221
208
197
188
188
184
217
221
203
205
250
206
214
211
248
239
217
255
224
219
224
242
199
191
205
204
205
201
190
188
202
171
160
143
138
160
140
165
170
161
160
151
186
168
192
178
214
237
234
244
215
207
182
157
153
170
150
194
161
180
143
161
189
181
183
213
201
207
229
232
229
267
243
263
292
265
327
287
271
299
269
283
252
209
211
215
229
242
255
247
211
220
218
184
174
176
164
172
175
162
199
220
170
207
205
167
177
165
186
175
180
186
218
218
232
264
218
250
213
230
231
214
234
215
190
174
162
145
175
172
182
186
176
191
196
197
166
188
167
155
174
134
163
181
182
187
188
185
210
190
195
181
182
157
178
147
136
148
133
134
159
162
176
153
204
178
197
205
177
181
164
163
167
168
138
153
143
152
190
153
172
182
179
205
184
186
228
220
252
293
301
252
266
241
280
261
252
238
250
254
199
180
219
240
237
260
271
278
258
237
230
212
260
254
297
292
291
287
301
315
333
315
300
264
295
232
210
197
202
197
198
210
219
190
217
231
205
229
269
234
231
232
204
209
199
226
254
238
230
234
246
236
243
210
265
242
251
188
222
220
181
223
194
226
231
242
224
236
226
203
226
211
221
221
246
240
234
214
238
262
261
260
257
255
240
218
218
264
245
264
243
279
274
259
289
213
238
205
227
222
220
254
255
297
263
314
260
287
287
261
250
245
224
197
190
187
173
210
182
203
223
205
212
201
205
183
200
171
176
160
175
200
181
204
223
258
258
333
313
323
311
263
265
252
258
235
213
220
226
219
213
203
216
302
327
329
355
392
380
349
353
337
284
300
282
237
238
229
231
200
197
203
208
222
235
262
336
318
294
257
235
230
213
164
189
155
157
148
167
174
163
168
175
153
159
149
166
157
179
184
178
198
214
235
245
233
234
217
216
202
198
217
225
181
204
176
172
176
183
186
172
208
185
205
220
207
234
242
222
229
247
245
214
206
183
189
170
180
191
169
192
197
210
192
201
234
246
262
271
257
268
269
235
243
266
226
208
242
207
225
219
215
215
201
221
172
224
220
227
192
215
191
181
170
156
166
159
187
191
170
161
169
179
179
176
165
158
183
208
205
192
262
266
328
320
308
340
357
304
284
283
231
210
226
217
190
171
148
159
162
155
167
148
162
173
189
192
182
202
197
213
212
188
202
203
243
247
279
217
227
192
206
197
169
167
178
223
213
228
246
252
260
264
260
309
255
273
228
285
262
258
257
289
278
269
273
257
260
232
219
192
219
217
231
197
209
239
258
292
298
313
286
279
257
253
238
222
212
174
188
189
180
213
253
175
221
252
261
272
309
297
273
263
225
254
244
186
227
227
233
218
238
226
246
237
229
225
230
232
288
252
242
246
235
228
209
230
198
213
244
234
218
247
215
220
180
178
187
198
168
140
152
163
155
180
168
177
167
160
164
178
200
197
184
165
165
161
175
182
157
161
184
189
180
201
221
171
181
173
155
158
182
161
150
145
158
171
153
179
164
170
188
147
159
150
179
150
131
131
134
136
158
144
143
161
156
159
178
171
166
194
194
205
215
197
158
181
193
140
158
165
166
167
164
154
190
164
174
181
152
145
201
164
149
133
164
143
154
132
157
162
148
145
150
159
160
144
148
182
180
197
190
206
210
205
194
196
206
176
182
160
164
133
155
160
145
132
174
155
166
144
168
133
170
143
184
193
214
222
232
249
251
278
222
221
227
201
187
190
166
166
174
172
187
161
168
193
155
177
144
139
159
151
147
149
149
157
147
158
153
128
181
164
164
193
208
208
211
203
190
164
156
155
146
162
162
171
162
173
133
164
157
135
144
141
136
140
135
161
149
157
189
196
217
243
231
251
229
235
199
215
169
196
192
168
173
161
156
194
204
189
178
203
233
233
243
273
248
250
238
221
227
205
201
178
193
190
211
208
241
300
314
329
346
335
325
308
268
243
235
224
225
221
230
208
253
213
232
239
234
285
269
244
219
177
204
188
189
177
175
184
174
159
178
163
150
176
184
166
184
175
164
182
165
183
188
179
174
161
159
170
164
157
155
159
173
154
118
155
147
127
152
159
152
163
172
182
160
167
180
170
211
185
218
204
215
228
250
287
302
358
336
358
305
316
325
279
281
249
236
211
211
213
233
231
252
246
251
249
206
217
211
209
232
214
202
213
201
182
161
183
187
174
194
160
168
212
177
175
242
239
251
322
304
367
333
338
298
292
272
296
318
338
323
342
324
320
334
321
321
290
313
261
277
232
226
229
191
204
177
168
167
151
184
161
192
206
221
187
206
207
226
197
217
204
202
190
203
205
230
236
188
214
226
216
211
210
171
179
159
177
157
174
188
194
191
196
203
199
175
216
197
200
205
183
203
199
171
188
179
190
203
215
240
255
270
278
286
294
254
261
224
205
204
214
198
192
180
193
158
221
178
178
179
171
153
173
200
178
181
187
189
193
186
178
188
191
181
212
194
214
207
212
207
170
180
156
165
163
163
164
153
148
149
161
176
157
221
201
222
212
254
249
241
223
199
180
170
207
182
210
188
199
201
225
222
217
206
217
179
197
217
203
188
207
190
223
217
210
186
211
190
231
180
229
187
179
166
169
167
167
173
186
182
176
182
198
172
203
171
148
177
214
211
198
211
180
199
186
190
162
179
209
200
211
232
215
204
202
185
168
165
174
148
177
150
145
139
142
138
134
158
171
154
155
164
165
160
190
156
159
165
147
168
182
228
204
230
231
276
253
264
279
312
294
312
282
275
253
264
224
244
229
172
169
141
164
172
144
151
161
153
153
177
158
180
196
206
183
174
176
186
165
154
145
127
143
154
141
141
152
159
157
160
178
167
183
217
242
247
250
221
184
188
167
160
144
155
138
143
141
140
139
159
140
172
158
184
189
192
199
182
207
201
203
210
252
270
280
273
291
249
239
206
194
172
164
168
161
146
173
185
207
196
215
212
238
268
272
268
254
222
265
236
225
252
254
268
262
257
240
255
257
246
240
268
271
283
268
273
260
270
265
276
286
288
306
266
237
253
254
201
228
241
208
224
229
195
187
222
189
172
169
186
179
165
221
186
176
196
180
184
184
135
144
140
150
139
126
135
152
139
134
146
136
123
130
160
158
170
150
149
164
171
198
220
181
178
196
159
176
166
179
142
148
147
147
169
187
213
175
198
190
218
223
200
205
212
189
200
233
220
204
199
153
187
181
166
204
187
212
225
238
236
185
196
189
166
182
185
192
175
181
173
199
210
217
221
212
190
209
215
219
193
191
210
211
175
162
181
150
163
156
162
135
155
179
195
185
211
221
220
208
229
217
198
203
148
163
177
173
176
174
169
198
207
226
259
237
270
276
262
214
224
193
182
191
169
133
159
155
130
156
152
147
177
135
172
147
163
170
148
155
186
200
189
203
214
222
232
205
211
231
207
207
236
257
223
224
201
173
169
194
179
187
189
177
188
183
151
161
182
165
153
166
145
172
192
171
143
186
167
163
173
166
155
175
181
138
153
153
166
168
191
200
219
206
215
182
216
203
201
183
202
233
231
229
239
229
213
226
203
213
218
237
243
223
255
242
232
204
237
185
178
190
195
200
197
244
228
234
238
205
222
232
236
237
265
262
230
244
189
228
185
205
201
169
153
180
156
153
189
189
198
178
182
204
205
199
180
188
201
175
175
201
213
218
218
220
220
208
192
235
226
234
243
269
241
274
269
297
270
246
228
212
218
204
207
194
199
200
182
176
167
169
181
194
216
227
235
246
256
241
268
206
215
205
196
214
171
188
174
234
189
224
220
213
251
230
236
263
244
329
332
326
335
299
311
280
295
310
318
349
310
323
298
362
328
375
328
333
334
343
277
249
201
209
210
202
192
180
210
218
224
254
257
264
248
247
305
225
243
245
221
247
186
155
192
206
181
201
180
190
184
226
217
244
247
252
219
227
229
221
224
222
230
212
200
189
230
242
237
197
211
180
162
188
157
183
168
156
163
164
204
178
177
202
184
200
173
164
170
206
177
165
194
176
203
203
226
188
188
212
181
184
192
202
191
172
151
167
172
155
163
163
185
186
152
139
171
154
145
153
143
133
144
130
132
129
125
133
142
145
135
162
136
141
165
146
110
132
149
140
162
174
177
183
179
186
176
191
175
193
206
211
203
239
234
224
231
196
209
247
182
228
191
225
225
266
297
294
300
281
295
258
242
208
198
188
160
179
187
144
156
169
149
145
135
169
137
132
135
138
154
141
147
180
169
160
180
172
169
180
180
169
172
145
155
180
165
153
176
196
160
207
214
191
233
223
266
300
307
303
285
331
291
279
250
208
215
178
160
175
156
169
184
162
175
159
183
194
150
182
178
192
198
169
161
150
168
159
161
150
166
190
151
155
171
152
145
162
159
148
166
198
185
195
195
185
208
178
183
190
194
182
252
257
269
220
221
236
214
187
178
187
181
213
190
173
191
183
213
210
233
220
240
295
291
315
302
297
300
254
219
216
192
197
182
174
192
188
186
177
152
187
185
181
187
183
187
211
225
259
262
268
261
290
359
326
327
327
313
294
279
248
218
182
200
182
228
188
230
242
253
250
254
245
224
246
208
221
215
217
219
239
234
241
243
233
246
245
258
244
237
267
242
225
222
203
175
164
150
179
203
209
164
166
175
168
167
178
228
219
181
222
215
210
183
182
153
189
169
188
163
175
170
179
195
184
203
188
223
230
203
228
258
232
240
238
262
227
275
257
286
253
276
256
262
233
249
196
186
178
181
159
164
137
150
145
142
159
146
153
156
138
127
158
128
143
147
163
178
167
186
167
174
173
177
186
157
173
172
165
167
173
183
145
157
190
187
211
203
210
217
221
253
256
268
280
266
254
237
240
218
226
178
217
184
185
181
161
154
161
171
183
199
183
211
224
200
228
197
209
198
180
150
170
180
178
181
171
179
151
182
190
191
204
220
241
273
278
273
262
236
225
232
236
207
155
194
172
194
177
161
179
169
168
165
154
174
147
164
165
165
191
206
192
201
177
191
213
150
172
208
173
172
169
168
156
166
147
162
164
146
142
176
161
146
164
183
171
158
176
167
176
179
170
215
210
196
222
204
212
218
215
230
230
233
243
217
201
182
194
172
155
175
148
156
150
144
151
159
167
174
170
196
210
248
230
268
287
247
248
315
318
268
268
303
271
282
262
280
273
289
263
235
250
229
167
161
161
165
166
192
178
190
189
172
184
212
245
270
274
306
290
282
235
247
224
179
214
214
207
225
217
198
221
208
215
195
209
186
199
198
194
227
189
243
246
235
238
241
230
226
215
198
190
222
223
257
240
224
232
246
218
246
207
194
190
178
197
212
181
194
222
199
223
223
199
200
205
190
172
180
163
168
159
160
143
133
190
193
171
199
164
170
174
162
182
156
181
155
151
171
181
187
176
184
179
197
164
169
173
166
173
168
169
172
178
176
178
180
196
203
182
163
157
151
141
141
170
123
144
133
141
144
174
181
187
200
247
222
256
274
273
317
307
262
254
251
235
227
268
198
214
239
223
200
234
169
170
174
189
194
165
168
152
167
130
140
185
134
145
181
145
157
160
168
154
155
146
135
140
132
127
143
140
109
122
140
118
129
129
139
144
153
152
153
159
151
113
146
156
142
152
151
150
142
160
175
164
166
149
151
172
154
169
188
166
176
188
173
186
204
199
220
210
216
217
229
244
272
247
206
237
212
218
244
241
215
211
208
198
161
153
177
175
170
169
163
163
158
175
181
151
169
150
165
153
182
164
153
147
138
134
141
139
142
133
161
136
134
130
153
142
158
154
153
137
155
163
150
150
143
187
137
157
175
190
188
173
187
175
207
155
156
182
178
146
178
171
142
139
167
166
153
150
144
151
153
169
143
167
156
180
145
142
143
140
159
180
171
197
172
185
178
157
178
154
157
165
162
147
164
150
147
144
162
172
154
154
165
185
180
162
157
194
204
195
184
181
166
160
162
173
177
153
148
156
143
126
143
135
139
162
146
133
156
152
172
171
177
192
177
222
233
207
211
201
223
233
206
225
209
188
193
178
151
153
149
161
159
127
152
145
146
149
169
142
164
161
172
198
210
202
180
187
163
160
172
189
174
155
174
181
171
177
171
186
189
173
170
182
202
188
179
170
226
183
163
187
153
158
166
159
152
118
161
145
146
147
156
157
138
160
166
143
142
148
134
141
166
155
145
179
139
182
166
177
167
166
159
165
168
173
165
200
148
165
154
138
178
156
167
143
126
149
166
169
164
150
162
160
146
129
126
139
134
123
135
143
152
162
158
154
167
142
155
126
136
136
146
144
122
130
146
142
113
126
157
129
141
154
142
153
134
149
153
156
143
164
180
151
140
167
146
145
135
132
165
143
152
158
134
140
163
159
166
162
168
165
159
177
164
164
163
164
151
143
137
116
140
120
121
124
166
126
128
139
147
147
160
179
159
199
143
161
138
167
140
168
156
131
130
149
135
141
140
136
129
156
147
146
176
175
170
153
172
178
155
161
154
174
159
163
170
155
175
173
151
147
163
164
151
168
142
154
125
124
148
168
156
129
144
163
145
156
148
159
151
147
144
140
150
144
159
156
159
162
176
172
165
163
186
202
195
189
185
216
193
172
191
196
182
174
173
182
172
164
133
143
152
172
156
131
154
148
158
168
157
160
167
174
157
157
169
159
126
153
139
127
136
151
147
149
166
164
168
144
152
155
135
155
159
166
119
163
138
119
139
135
147
137
131
137
135
137
157
158
151
167
188
184
162
159
167
164
177
171
178
187
171
192
171
186
196
183
174
208
190
186
185
208
187
180
180
150
155
143
186
168
143
150
162
148
172
170
169
153
170
186
173
149
148
154
156
133
141
151
172
153
180
152
157
171
170
171
155
160
164
159
188
160
159
140
186
161
154
198
174
178
191
149
178
195
180
179
168
154
137
141
136
137
139
141
156
155
153
172
146
173
176
174
163
187
154
137
122
142
130
150
156
128
139
162
146
143
153
150
125
141
130
136
143
132
121
132
131
135
121
123
140
132
168
157
156
156
144
147
159
157
140
166
143
149
133
141
148
131
159
145
145
136
137
134
115
126
115
113
144
131
129
124
122
131
129
149
124
140
138
148
139
136
150
135
151
148
140
152
129
116
133
147
134
104
151
126
140
146
154
124
133
151
142
155
139
168
173
165
141
157
155
152
152
140
144
151
122
121
123
152
132
164
142
145
163
128
142
153
136
140
126
128
141
136
120
119
136
153
139
143
137
150
151
156
173
158
159
160
147
155
122
138
153
142
147
113
127
132
114
126
147
148
124
128
140
156
158
160
152
142
145
137
139
135
134
142
163
145
118
135
139
160
136
136
120
117
127
162
152
139
152
144
143
159
141
150
155
186
182
196
200
218
199
186
195
206
180
189
175
187
177
169
193
171
199
179
203
200
190
160
189
174
179
164
151
172
175
171
154
155
174
140
138
172
126
141
143
179
147
152
159
160
140
140
149
155
119
127
134
138
125
125
135
137
116
122
121
134
117
127
118
117
128
115
131
123
110
128
125
136
133
118
133
149
137
145
139
150
158
164
160
170
175
156
166
193
150
160
146
171
128
150
118
133
135
144
129
112
119
150
131
145
134
132
121
144
131
135
148
149
143
142
134
142
140
140
149
129
161
157
171
198
175
198
171
158
200
192
197
194
182
182
190
178
141
152
121
139
126
123
119
127
136
138
130
128
140
155
136
121
134
143
129
145
138
145
143
150
154
157
142
148
153
133
166
147
151
144
147
157
152
133
143
150
139
129
146
160
139
146
136
102
135
130
137
139
119
143
135
144
147
131
144
151
129
130
121
132
147
161
145
123
151
114
153
143
157
176
187
200
198
197
219
189
173
168
195
199
201
215
183
199
157
161
168
184
179
176
176
194
172
200
188
214
201
237
207
211
198
179
201
174
153
166
185
155
151
146
155
154
212
213
180
158
180
181
195
167
149
159
145
161
157
165
142
182
157
159
169
160
161
145
161
170
166
160
166
178
190
156
201
189
199
163
181
171
178
181
157
180
187
168
158
154
141
166
131
138
139
150
137
157
145
145
142
125
118
144
138
129
142
133
124
130
125
112
147
141
136
148
173
147
164
136
175
149
134
143
146
135
141
155
165
162
139
144
154
119
141
125
151
151
128
144
152
173
165
167
178
177
192
167
167
186
173
173
175
186
204
177
180
189
173
209
210
211
196
188
202
191
212
228
221
259
241
221
218
190
175
157
161
161
147
180
142
145
140
149
127
153
158
169
149
156
161
153
141
142
148
132
155
134
144
143
139
148
150
144
148
155
149
154
148
170
129
156
158
135
168
154
157
142
127
139
144
115
139
128
147
124
145
145
139
130
133
117
153
158
133
137
147
125
147
123
129
112
132
136
120
115
123
132
132
142
124
119
119
130
127
111
135
111
119
123
115
145
138
135
143
116
140
125
117
130
141
114
137
135
119
134
141
152
151
133
161
177
169
165
147
166
177
175
150
141
161
157
154
149
152
162
122
115
137
152
147
143
133
143
137
145
129
140
164
149
141
139
135
133
127
151
151
142
169
145
167
150
125
141
138
141
144
131
140
148
132
119
146
181
166
174
158
147
128
147
148
168
155
149
153
144
153
153
144
161
151
165
156
178
159
140
163
164
131
139
128
114
144
179
186
153
150
141
132
145
133
140
158
156
154
131
140
133
131
118
135
127
135
133
123
141
157
153
161
163
189
179
167
169
178
152
159
163
168
139
137
157
135
173
155
161
152
157
142
149
124
154
171
156
146
152
163
157
146
154
144
155
164
142
163
151
169
164
138
151
161
128
146
163
162
161
162
138
168
171
169
177
182
175
183
153
158
175
177
141
143
129
152
132
161
145
144
134
131
161
157
154
155
173
177
171
161
153
130
153
138
139
126
130
118
144
135
139
138
162
152
148
173
137
177
156
171
174
190
200
241
196
191
233
221
221
215
183
238
201
233
208
215
206
222
226
206
248
269
237
275
246
261
255
259
223
185
177
175
161
162
158
137
160
154
143
157
154
199
180
172
195
170
180
170
157
163
157
165
147
145
161
166
146
144
142
133
160
124
147
149
159
173
159
173
176
147
147
135
121
123
136
139
154
139
143
158
161
165
185
198
194
175
177
175
154
169
162
158
152
164
167
149
137
165
154
149
150
135
151
126
159
156
165
153
193
165
166
168
179
167
190
169
148
136
152
150
130
127
153
153
172
132
125
148
157
121
146
121
128
156
106
145
146
119
137
148
160
199
171
153
164
153
165
154
154
138
139
149
138
149
145
124
133
145
146
114
146
121
137
138
140
112
139
153
138
145
137
143
144
122
141
129
141
119
138
151
166
154
136
140
157
136
150
170
180
155
159
149
146
155
181
168
153
151
148
135
152
152
142
128
124
113
130
136
142
139
119
159
138
156
165
183
148
170
158
170
173
142
155
147
151
132
134
137
126
155
110
160
128
141
141
148
155
127
137
135
131
143
143
132
144
162
126
133
146
178
149
168
153
162
167
175
165
154
148
170
151
160
159
126
146
139
143
126
132
140
122
139
115
143
141
135
130
148
130
126
137
131
149
139
152
122
140
139
129
137
152
130
135
141
134
100
148
114
114
120
129
132
142
125
155
133
139
170
141
142
154
124
145
135
159
130
148
132
155
135
134
157
150
133
116
145
122
114
121
146
121
135
139
145
144
128
135
129
128
133
113
115
121
136
118
151
144
134
137
145
146
168
155
158
174
149
141
154
154
150
162
169
156
135
135
146
137
137
146
117
119
148
119
129
137
139
136
123
122
143
134
119
136
124
152
150
158
137
161
144
130
151
137
129
149
128
141
165
130
137
133
125
130
158
140
131
138
146
158
159
150
126
153
140
125
155
142
144
129
136
135
119
132
136
148
128
142
144
158
160
169
151
177
144
182
164
187
190
195
199
196
200
194
191
178
203
188
224
224
201
218
222
205
216
223
221
230
186
184
183
165
149
164
171
155
132
145
148
162
168
168
144
126
155
161
135
174
158
140
139
135
138
136
155
146
113
131
137
144
141
153
140
129
135
139
156
139
185
171
181
180
159
158
157
160
128
143
135
128
134
136
143
151
129
137
180
195
196
183
192
227
151
180
164
157
148
157
154
152
112
133
142
156
146
144
175
173
175
170
190
184
209
181
179
194
180
148
155
125
126
132
163
129
126
145
129
111
141
127
142
129
139
126
111
107
125
115
133
111
108
105
137
139
127
117
126
108
138
132
138
115
107
126
138
113
120
130
142
161
149
190
144
179
182
174
197
195
187
196
179
195
152
168
228
176
152
150
142
167
147
147
162
152
153
167
152
170
129
149
161
170
164
176
152
164
166
167
149
154
136
138
136
137
111
113
112
124
141
153
133
133
129
126
156
130
125
153
150
134
141
164
167
170
143
186
192
142
152
165
176
151
173
167
121
152
152
151
153
148
157
146
141
154
132
139
125
133
118
105
109
119
123
141
113
128
130
136
137
149
119
130
117
135
148
128
142
125
171
143
131
149
146
135
149
145
139
146
136
152
139
146
118
134
138
136
146
174
139
156
174
131
151
175
174
165
137
153
146
141
145
152
148
172
168
168
142
165
139
146
163
169
177
146
145
155
153
172
137
141
148
147
144
130
149
116
146
174
154
160
134
162
146
152
162
159
177
169
173
180
173
176
186
167
151
187
183
175
205
166
166
167
166
183
146
148
145
147
149
134
138
141
163
172
149
161
154
170
180
172
183
131
136
132
164
133
120
119
144
140
125
140
122
137
125
123
131
121
122
150
135
136
133
150
163
135
131
125
125
131
128
121
124
146
137
142
153
127
144
129
155
142
152
132
121
149
159
149
148
134
149
172
147
156
135
137
144
148
123
131
134
143
104
120
112
114
125
126
124
94
127
125
131
132
112
147
138
125
161
157
127
145
119
145
127
154
116
140
132
125
128
133
138
133
123
128
152
164
128
133
116
139
139
113
121
115
126
132
134
134
127
138
148
151
131
143
138
137
143
120
134
138
132
125
124
139
125
130
117
122
163
156
177
140
165
161
167
157
144
141
136
164
138
155
134
161
156
173
188
168
169
186
183
175
204
187
185
185
205
193
184
184
203
207
169
195
185
181
168
166
169
158
153
141
130
159
125
119
148
137
160
128
137
140
146
140
156
128
138
145
148
153
142
171
151
160
197
200
142
155
183
169
173
182
175
180
161
155
133
144
166
122
128
118
152
135
123
123
128
139
125
138
131
114
144
134
140
150
156
135
142
139
136
132
137
132
146
123
119
132
131
124
127
146
147
132
122
143
129
149
158
133
168
137
139
144
149
133
155
146
144
146
134
130
139
141
158
143
120
132
154
147
144
119
133
139
150
121
125
118
136
125
117
130
144
142
125
126
127
141
110
131
132
136
150
142
128
152
130
147
131
174
151
161
140
142
142
138
129
133
155
145
109
142
134
143
134
143
125
126
130
131
140
114
116
122
117
126
125
137
139
118
110
137
115
136
123
128
125
110
128
114
114
121
112
92
129
129
104
130
102
131
133
131
125
126
134
115
123
141
114
114
103
134
97
104
129
119
109
140
131
126
129
122
145
128
103
123
110
129
117
118
148
126
112
118
133
120
113
112
116
127
123
142
127
123
144
110
129
132
146
132
144
119
152
134
141
145
139
110
121
117
129
131
116
129
112
109
117
119
144
128
122
120
131
110
119
128
159
161
158
174
150
145
161
136
137
141
131
133
130
137
124
166
168
154
140
138
142
99
134
151
148
173
140
140
134
135
175
143
164
151
151
130
144
135
132
146
121
146
149
124
142
141
143
133
141
153
132
156
133
149
138
152
149
129
140
131
124
144
167
142
159
152
157
137
139
164
167
158
137
160
154
137
146
151
148
155
134
157
169
154
147
170
158
144
126
142
136
159
143
141
140
134
125
141
139
142
119
157
153
138
122
130
140
118
127
121
123
125
141
122
104
142
118
119
106
113
102
105
104
102
120
124
115
130
127
135
134
144
138
127
133
132
122
141
111
142
156
158
140
113
148
150
136
131
119
141
116
136
150
129
117
124
126
116
126
146
152
143
133
135
150
147
158
149
156
150
146
158
148
154
129
157
162
135
127
125
141
113
118
115
123
135
114
103
134
124
126
133
137
120
112
115
124
106
117
114
105
121
90
106
111
101
129
99
121
103
99
122
125
114
107
120
108
115
109
124
122
125
115
118
103
112
124
122
119
103
123
110
136
141
131
120
150
151
155
154
143
157
156
178
168
157
140
158
116
129
140
129
146
149
138
121
127
113
132
150
144
169
123
110
132
119
119
123
132
113
140
127
129
127
136
126
127
120
155
132
135
115
112
99
117
114
124
133
142
154
124
144
147
148
126
144
138
133
147
140
117
107
108
111
141
119
118
121
118
123
143
110
136
123
130
124
117
129
128
129
123
111
114
125
114
119
130
118
133
106
116
142
114
116
156
116
107
131
130
122
132
118
127
114
152
120
128
120
156
150
147
118
130
135
126
139
123
132
147
114
129
110
135
133
128
146
141
127
114
123
137
101
133
135
133
111
135
134
123
132
136
121
117
130
119
137
146
113
126
128
114
122
113
115
131
143
123
107
140
137
129
128
130
176
150
139
127
143
151
131
109
139
116
126
131
115
146
129
118
114
129
117
111
121
101
113
101
128
105
127
128
118
128
124
138
112
154
137
120
117
120
123
120
107
117
125
120
114
110
133
115
122
133
113
115
125
99
125
115
138
120
134
129
141
118
140
129
122
128
128
124
108
117
120
154
115
155
138
158
135
167
172
168
164
156
161
172
180
166
174
154
125
156
141
146
143
116
148
149
146
149
152
156
139
166
148
165
135
119
132
153
154
138
145
120
117
128
134
118
112
115
135
133
137
137
127
131
133
143
118
114
140
146
134
154
130
117
126
141
135
129
133
130
145
135
156
125
125
117
130
125
110
135
112
132
134
112
137
109
108
121
115
122
138
135
117
129
134
132
110
135
133
148
134
120
126
143
153
141
119
136
124
120
117
124
116
121
112
108
118
102
105
110
124
111
125
114
131
119
129
111
99
140
116
122
127
121
118
108
122
103
104
104
120
106
102
105
116
92
115
103
82
86
