Sample 1 - sdpdrr2 - Cu XRD 1.54060
 10.000 860
 10.020 925
 10.040 948
 10.060 846
 10.080 910
 10.100 934
 10.120 946
 10.140 918
 10.160 895
 10.180 899
 10.200 911
 10.220 861
 10.240 874
 10.260 869
 10.280 904
 10.300 888
 10.320 926
 10.340 872
 10.360 928
 10.380 901
 10.400 887
 10.420 908
 10.440 938
 10.460 880
 10.480 896
 10.500 842
 10.520 829
 10.540 894
 10.560 927
 10.580 897
 10.600 870
 10.620 908
 10.640 914
 10.660 885
 10.680 931
 10.700 888
 10.720 819
 10.740 893
 10.760 887
 10.780 877
 10.800 832
 10.820 939
 10.840 920
 10.860 920
 10.880 910
 10.900 984
 10.920 968
 10.940 904
 10.960 874
 10.980 946
 11.000 877
 11.020 946
 11.040 874
 11.060 903
 11.080 951
 11.100 939
 11.120 920
 11.140 890
 11.160 905
 11.180 893
 11.200 977
 11.220 852
 11.240 893
 11.260 895
 11.280 897
 11.300 942
 11.320 895
 11.340 964
 11.360 920
 11.380 924
 11.400 923
 11.420 945
 11.440 909
 11.460 978
 11.480 868
 11.500 926
 11.520 910
 11.540 970
 11.560 936
 11.580 900
 11.600 959
 11.620 970
 11.640 967
 11.660 954
 11.680 981
 11.700 1002
 11.720 1026
 11.740 992
 11.760 1026
 11.780 1027
 11.800 1082
 11.820 1068
 11.840 1162
 11.860 1230
 11.880 1418
 11.900 1724
 11.920 2094
 11.940 2472
 11.960 2571
 11.980 2472
 12.000 2121
 12.020 1610
 12.040 1359
 12.060 1188
 12.080 1124
 12.100 1120
 12.120 1035
 12.140 1008
 12.160 1073
 12.180 1015
 12.200 1020
 12.220 980
 12.240 1001
 12.260 1034
 12.280 958
 12.300 994
 12.320 1042
 12.340 990
 12.360 966
 12.380 1063
 12.400 929
 12.420 996
 12.440 1012
 12.460 1027
 12.480 993
 12.500 974
 12.520 1001
 12.540 989
 12.560 986
 12.580 1033
 12.600 1037
 12.620 993
 12.640 1043
 12.660 1045
 12.680 1029
 12.700 1010
 12.720 1012
 12.740 1048
 12.760 1005
 12.780 990
 12.800 1005
 12.820 1024
 12.840 1032
 12.860 1094
 12.880 1049
 12.900 1047
 12.920 1086
 12.940 1182
 12.960 1159
 12.980 1165
 13.000 1254
 13.020 1255
 13.040 1322
 13.060 1360
 13.080 1447
 13.100 1508
 13.120 1576
 13.140 1681
 13.160 1883
 13.180 2185
 13.200 2614
 13.220 3450
 13.240 4434
 13.260 6002
 13.280 7895
 13.300 8861
 13.320 8648
 13.340 7550
 13.360 5962
 13.380 4568
 13.400 3475
 13.420 3012
 13.440 2830
 13.460 2667
 13.480 2678
 13.500 2942
 13.520 3178
 13.540 3745
 13.560 4644
 13.580 5713
 13.600 7017
 13.620 7690
 13.640 6938
 13.660 5680
 13.680 4207
 13.700 2979
 13.720 2332
 13.740 1829
 13.760 1574
 13.780 1437
 13.800 1402
 13.820 1344
 13.840 1299
 13.860 1261
 13.880 1267
 13.900 1178
 13.920 1227
 13.940 1187
 13.960 1095
 13.980 1149
 14.000 1205
 14.020 1132
 14.040 1172
 14.060 1127
 14.080 1160
 14.100 1145
 14.120 1188
 14.140 1132
 14.160 1185
 14.180 1193
 14.200 1137
 14.220 1155
 14.240 1188
 14.260 1083
 14.280 1163
 14.300 1189
 14.320 1188
 14.340 1177
 14.360 1204
 14.380 1206
 14.400 1172
 14.420 1249
 14.440 1175
 14.460 1172
 14.480 1215
 14.500 1241
 14.520 1227
 14.540 1180
 14.560 1233
 14.580 1213
 14.600 1231
 14.620 1269
 14.640 1233
 14.660 1255
 14.680 1238
 14.700 1285
 14.720 1283
 14.740 1316
 14.760 1328
 14.780 1380
 14.800 1308
 14.820 1347
 14.840 1299
 14.860 1372
 14.880 1240
 14.900 1295
 14.920 1283
 14.940 1279
 14.960 1339
 14.980 1355
 15.000 1296
 15.020 1235
 15.040 1288
 15.060 1320
 15.080 1385
 15.100 1300
 15.120 1337
 15.140 1382
 15.160 1369
 15.180 1431
 15.200 1433
 15.220 1440
 15.240 1502
 15.260 1539
 15.280 1575
 15.300 1578
 15.320 1680
 15.340 1736
 15.360 1790
 15.380 1838
 15.400 1912
 15.420 2068
 15.440 2258
 15.460 2420
 15.480 2763
 15.500 3211
 15.520 4072
 15.540 5327
 15.560 6761
 15.580 8366
 15.600 9786
 15.620 10214
 15.640 9707
 15.660 8386
 15.680 6867
 15.700 5201
 15.720 4190
 15.740 3348
 15.760 2941
 15.780 2472
 15.800 2329
 15.820 2092
 15.840 2006
 15.860 1984
 15.880 1904
 15.900 1820
 15.920 1692
 15.940 1578
 15.960 1533
 15.980 1518
 16.000 1520
 16.020 1591
 16.040 1485
 16.060 1458
 16.080 1523
 16.100 1491
 16.120 1506
 16.140 1482
 16.160 1506
 16.180 1506
 16.200 1477
 16.220 1393
 16.240 1490
 16.260 1496
 16.280 1490
 16.300 1484
 16.320 1480
 16.340 1413
 16.360 1455
 16.380 1433
 16.400 1430
 16.420 1458
 16.440 1466
 16.460 1486
 16.480 1547
 16.500 1467
 16.520 1507
 16.540 1468
 16.560 1459
 16.580 1510
 16.600 1480
 16.620 1543
 16.640 1476
 16.660 1572
 16.680 1625
 16.700 1499
 16.720 1525
 16.740 1565
 16.760 1535
 16.780 1569
 16.800 1592
 16.820 1578
 16.840 1644
 16.860 1768
 16.880 1753
 16.900 1795
 16.920 1887
 16.940 1929
 16.960 1917
 16.980 2035
 17.000 2131
 17.020 2295
 17.040 2616
 17.060 2962
 17.080 3674
 17.100 4651
 17.120 5971
 17.140 7489
 17.160 8789
 17.180 8754
 17.200 8442
 17.220 6915
 17.240 5459
 17.260 4117
 17.280 3339
 17.300 2815
 17.320 2511
 17.340 2351
 17.360 2236
 17.380 2006
 17.400 2015
 17.420 1917
 17.440 1879
 17.460 1761
 17.480 1855
 17.500 1774
 17.520 1686
 17.540 1728
 17.560 1681
 17.580 1711
 17.600 1690
 17.620 1605
 17.640 1676
 17.660 1728
 17.680 1684
 17.700 1749
 17.720 1748
 17.740 1639
 17.760 1634
 17.780 1748
 17.800 1796
 17.820 1845
 17.840 1900
 17.860 2208
 17.880 2407
 17.900 2545
 17.920 2739
 17.940 2745
 17.960 2564
 17.980 2377
 18.000 2206
 18.020 1992
 18.040 2002
 18.060 1981
 18.080 2061
 18.100 2039
 18.120 2349
 18.140 2576
 18.160 2653
 18.180 2528
 18.200 2457
 18.220 2217
 18.240 1970
 18.260 1977
 18.280 1865
 18.300 1781
 18.320 1795
 18.340 1777
 18.360 1807
 18.380 1786
 18.400 1794
 18.420 1726
 18.440 1711
 18.460 1769
 18.480 1761
 18.500 1746
 18.520 1772
 18.540 1775
 18.560 1788
 18.580 1792
 18.600 1810
 18.620 1805
 18.640 1765
 18.660 1743
 18.680 1797
 18.700 1812
 18.720 1766
 18.740 1734
 18.760 1807
 18.780 1760
 18.800 1786
 18.820 1837
 18.840 1773
 18.860 1712
 18.880 1825
 18.900 1778
 18.920 1770
 18.940 1844
 18.960 1898
 18.980 1829
 19.000 1828
 19.020 1872
 19.040 1816
 19.060 1780
 19.080 1856
 19.100 1877
 19.120 1830
 19.140 1896
 19.160 1870
 19.180 1858
 19.200 1939
 19.220 1910
 19.240 1852
 19.260 1937
 19.280 1962
 19.300 1912
 19.320 1946
 19.340 1938
 19.360 1926
 19.380 1911
 19.400 2034
 19.420 1938
 19.440 1867
 19.460 1882
 19.480 1891
 19.500 1903
 19.520 1954
 19.540 1917
 19.560 2005
 19.580 1972
 19.600 1949
 19.620 1878
 19.640 1867
 19.660 1917
 19.680 1952
 19.700 2033
 19.720 1999
 19.740 1998
 19.760 1915
 19.780 2004
 19.800 2005
 19.820 2025
 19.840 1968
 19.860 2031
 19.880 1917
 19.900 1998
 19.920 2040
 19.940 1978
 19.960 2031
 19.980 2069
 20.000 2049
 20.020 2045
 20.040 2008
 20.060 1965
 20.080 2023
 20.100 2059
 20.120 2028
 20.140 2107
 20.160 2155
 20.180 2052
 20.200 2005
 20.220 2155
 20.240 2078
 20.260 2124
 20.280 2117
 20.300 2119
 20.320 2072
 20.340 2128
 20.360 2161
 20.380 2165
 20.400 2098
 20.420 2097
 20.440 2235
 20.460 2270
 20.480 2254
 20.500 2253
 20.520 2376
 20.540 2389
 20.560 2368
 20.580 2453
 20.600 2466
 20.620 2585
 20.640 2673
 20.660 2806
 20.680 3013
 20.700 3261
 20.720 3643
 20.740 4261
 20.760 5258
 20.780 6590
 20.800 7367
 20.820 7982
 20.840 7763
 20.860 7057
 20.880 6180
 20.900 5229
 20.920 4284
 20.940 3768
 20.960 3198
 20.980 2928
 21.000 2877
 21.020 2727
 21.040 2668
 21.060 2603
 21.080 2512
 21.100 2441
 21.120 2431
 21.140 2350
 21.160 2405
 21.180 2425
 21.200 2257
 21.220 2292
 21.240 2304
 21.260 2264
 21.280 2324
 21.300 2310
 21.320 2224
 21.340 2325
 21.360 2296
 21.380 2235
 21.400 2289
 21.420 2296
 21.440 2201
 21.460 2282
 21.480 2279
 21.500 2302
 21.520 2299
 21.540 2309
 21.560 2278
 21.580 2309
 21.600 2299
 21.620 2272
 21.640 2343
 21.660 2312
 21.680 2301
 21.700 2329
 21.720 2232
 21.740 2318
 21.760 2258
 21.780 2293
 21.800 2341
 21.820 2313
 21.840 2324
 21.860 2268
 21.880 2310
 21.900 2270
 21.920 2281
 21.940 2314
 21.960 2401
 21.980 2377
 22.000 2302
 22.020 2347
 22.040 2393
 22.060 2400
 22.080 2331
 22.100 2316
 22.120 2295
 22.140 2394
 22.160 2343
 22.180 2347
 22.200 2443
 22.220 2321
 22.240 2321
 22.260 2418
 22.280 2401
 22.300 2317
 22.320 2256
 22.340 2355
 22.360 2358
 22.380 2300
 22.400 2339
 22.420 2426
 22.440 2383
 22.460 2390
 22.480 2400
 22.500 2465
 22.520 2407
 22.540 2409
 22.560 2374
 22.580 2337
 22.600 2478
 22.620 2351
 22.640 2375
 22.660 2467
 22.680 2397
 22.700 2367
 22.720 2387
 22.740 2413
 22.760 2407
 22.780 2488
 22.800 2398
 22.820 2413
 22.840 2431
 22.860 2448
 22.880 2379
 22.900 2394
 22.920 2313
 22.940 2490
 22.960 2423
 22.980 2451
 23.000 2460
 23.020 2391
 23.040 2496
 23.060 2499
 23.080 2483
 23.100 2488
 23.120 2519
 23.140 2580
 23.160 2595
 23.180 2589
 23.200 2811
 23.220 2806
 23.240 3056
 23.260 3081
 23.280 3069
 23.300 2991
 23.320 3014
 23.340 2879
 23.360 2830
 23.380 2733
 23.400 2728
 23.420 2731
 23.440 2780
 23.460 2792
 23.480 2779
 23.500 2723
 23.520 2823
 23.540 2863
 23.560 2897
 23.580 3019
 23.600 3323
 23.620 3543
 23.640 3595
 23.660 3620
 23.680 3339
 23.700 3268
 23.720 3016
 23.740 2944
 23.760 2761
 23.780 2739
 23.800 2786
 23.820 2680
 23.840 2700
 23.860 2660
 23.880 2754
 23.900 2719
 23.920 2649
 23.940 2706
 23.960 2988
 23.980 3141
 24.000 3324
 24.020 3887
 24.040 4155
 24.060 4208
 24.080 3998
 24.100 3771
 24.120 3526
 24.140 3221
 24.160 2962
 24.180 2870
 24.200 2660
 24.220 2668
 24.240 2581
 24.260 2591
 24.280 2583
 24.300 2636
 24.320 2502
 24.340 2490
 24.360 2532
 24.380 2529
 24.400 2461
 24.420 2496
 24.440 2442
 24.460 2450
 24.480 2450
 24.500 2497
 24.520 2585
 24.540 2432
 24.560 2452
 24.580 2454
 24.600 2474
 24.620 2500
 24.640 2488
 24.660 2400
 24.680 2403
 24.700 2438
 24.720 2417
 24.740 2464
 24.760 2486
 24.780 2500
 24.800 2461
 24.820 2510
 24.840 2408
 24.860 2490
 24.880 2544
 24.900 2462
 24.920 2453
 24.940 2422
 24.960 2482
 24.980 2464
 25.000 2527
 25.020 2508
 25.040 2362
 25.060 2453
 25.080 2494
 25.100 2439
 25.120 2466
 25.140 2476
 25.160 2525
 25.180 2513
 25.200 2538
 25.220 2607
 25.240 2522
 25.260 2647
 25.280 2588
 25.300 2583
 25.320 2798
 25.340 2840
 25.360 3029
 25.380 3169
 25.400 3434
 25.420 3559
 25.440 3510
 25.460 3579
 25.480 3452
 25.500 3449
 25.520 3302
 25.540 3312
 25.560 3280
 25.580 3284
 25.600 3155
 25.620 3048
 25.640 3117
 25.660 2954
 25.680 2956
 25.700 3119
 25.720 2954
 25.740 2991
 25.760 3123
 25.780 3052
 25.800 2979
 25.820 2840
 25.840 2797
 25.860 2735
 25.880 2537
 25.900 2563
 25.920 2572
 25.940 2502
 25.960 2514
 25.980 2380
 26.000 2405
 26.020 2421
 26.040 2432
 26.060 2414
 26.080 2458
 26.100 2433
 26.120 2398
 26.140 2335
 26.160 2372
 26.180 2436
 26.200 2420
 26.220 2398
 26.240 2383
 26.260 2474
 26.280 2444
 26.300 2334
 26.320 2420
 26.340 2466
 26.360 2346
 26.380 2469
 26.400 2300
 26.420 2376
 26.440 2351
 26.460 2351
 26.480 2390
 26.500 2369
 26.520 2389
 26.540 2438
 26.560 2375
 26.580 2463
 26.600 2366
 26.620 2530
 26.640 2562
 26.660 2560
 26.680 2665
 26.700 2627
 26.720 2893
 26.740 3048
 26.760 3184
 26.780 3365
 26.800 3455
 26.820 3308
 26.840 3259
 26.860 2963
 26.880 2899
 26.900 2723
 26.920 2670
 26.940 2600
 26.960 2606
 26.980 2528
 27.000 2504
 27.020 2593
 27.040 2592
 27.060 2481
 27.080 2507
 27.100 2473
 27.120 2464
 27.140 2532
 27.160 2509
 27.180 2480
 27.200 2510
 27.220 2534
 27.240 2528
 27.260 2655
 27.280 2670
 27.300 2684
 27.320 2713
 27.340 2830
 27.360 2927
 27.380 3224
 27.400 3500
 27.420 3625
 27.440 3753
 27.460 3892
 27.480 4124
 27.500 4442
 27.520 5040
 27.540 5952
 27.560 6804
 27.580 7111
 27.600 6951
 27.620 7000
 27.640 6856
 27.660 6729
 27.680 6922
 27.700 7372
 27.720 7675
 27.740 7626
 27.760 7358
 27.780 6707
 27.800 6016
 27.820 5295
 27.840 4581
 27.860 4178
 27.880 3721
 27.900 3375
 27.920 3226
 27.940 3098
 27.960 3165
 27.980 2947
 28.000 2879
 28.020 2831
 28.040 2674
 28.060 2824
 28.080 2816
 28.100 2907
 28.120 2995
 28.140 3168
 28.160 3203
 28.180 3311
 28.200 3282
 28.220 3270
 28.240 3119
 28.260 2920
 28.280 2805
 28.300 2688
 28.320 2614
 28.340 2495
 28.360 2366
 28.380 2470
 28.400 2370
 28.420 2329
 28.440 2321
 28.460 2305
 28.480 2227
 28.500 2317
 28.520 2314
 28.540 2267
 28.560 2226
 28.580 2225
 28.600 2240
 28.620 2342
 28.640 2142
 28.660 2188
 28.680 2275
 28.700 2182
 28.720 2160
 28.740 2221
 28.760 2200
 28.780 2176
 28.800 2223
 28.820 2205
 28.840 2191
 28.860 2200
 28.880 2249
 28.900 2211
 28.920 2283
 28.940 2265
 28.960 2193
 28.980 2141
 29.000 2236
 29.020 2223
 29.040 2128
 29.060 2224
 29.080 2215
 29.100 2228
 29.120 2082
 29.140 2123
 29.160 2263
 29.180 2253
 29.200 2254
 29.220 2232
 29.240 2327
 29.260 2211
 29.280 2237
 29.300 2265
 29.320 2327
 29.340 2292
 29.360 2473
 29.380 2436
 29.400 2743
 29.420 2725
 29.440 2755
 29.460 2726
 29.480 2764
 29.500 2599
 29.520 2567
 29.540 2581
 29.560 2534
 29.580 2465
 29.600 2487
 29.620 2606
 29.640 2790
 29.660 2986
 29.680 3312
 29.700 3376
 29.720 3227
 29.740 3280
 29.760 3089
 29.780 3056
 29.800 2830
 29.820 2725
 29.840 2564
 29.860 2563
 29.880 2649
 29.900 2605
 29.920 2778
 29.940 2905
 29.960 3085
 29.980 3338
 30.000 3675
 30.020 3763
 30.040 3937
 30.060 4067
 30.080 4191
 30.100 4304
 30.120 4400
 30.140 4535
 30.160 4474
 30.180 4451
 30.200 4303
 30.220 4194
 30.240 3935
 30.260 3635
 30.280 3403
 30.300 3050
 30.320 2877
 30.340 2687
 30.360 2598
 30.380 2479
 30.400 2463
 30.420 2336
 30.440 2297
 30.460 2263
 30.480 2167
 30.500 2205
 30.520 2245
 30.540 2172
 30.560 2286
 30.580 2176
 30.600 2145
 30.620 2170
 30.640 2286
 30.660 2211
 30.680 2322
 30.700 2328
 30.720 2296
 30.740 2244
 30.760 2275
 30.780 2165
 30.800 2199
 30.820 2147
 30.840 2173
 30.860 2004
 30.880 2105
 30.900 2054
 30.920 2112
 30.940 2063
 30.960 2044
 30.980 2011
 31.000 2029
 31.020 2036
 31.040 1999
 31.060 2041
 31.080 2103
 31.100 2047
 31.120 2004
 31.140 2126
 31.160 2031
 31.180 2003
 31.200 2004
 31.220 2073
 31.240 2085
 31.260 2092
 31.280 2105
 31.300 2010
 31.320 2062
 31.340 2125
 31.360 2170
 31.380 2241
 31.400 2258
 31.420 2309
 31.440 2411
 31.460 2390
 31.480 2629
 31.500 2783
 31.520 2871
 31.540 2776
 31.560 2933
 31.580 2934
 31.600 2733
 31.620 2674
 31.640 2583
 31.660 2438
 31.680 2436
 31.700 2330
 31.720 2291
 31.740 2300
 31.760 2159
 31.780 2129
 31.800 2106
 31.820 2032
 31.840 1944
 31.860 1972
 31.880 2043
 31.900 1974
 31.920 1925
 31.940 2003
 31.960 1951
 31.980 1995
 32.000 1997
 32.020 2037
 32.040 1944
 32.060 1988
 32.080 1953
 32.100 1981
 32.120 1837
 32.140 1978
 32.160 1937
 32.180 1996
 32.200 1905
 32.220 1914
 32.240 1859
 32.260 1841
 32.280 1819
 32.300 1879
 32.320 1808
 32.340 1840
 32.360 1834
 32.380 1813
 32.400 1904
 32.420 1820
 32.440 1987
 32.460 1867
 32.480 1911
 32.500 1936
 32.520 1866
 32.540 1851
 32.560 1836
 32.580 1867
 32.600 1766
 32.620 1918
 32.640 1832
 32.660 1851
 32.680 1823
 32.700 1772
 32.720 1805
 32.740 1836
 32.760 1821
 32.780 1830
 32.800 1817
 32.820 1904
 32.840 1885
 32.860 1912
 32.880 1857
 32.900 1843
 32.920 1840
 32.940 1826
 32.960 1760
 32.980 1889
 33.000 1877
 33.020 1811
 33.040 1815
 33.060 1781
 33.080 1788
 33.100 1713
 33.120 1872
 33.140 1804
 33.160 1698
 33.180 1725
 33.200 1708
 33.220 1745
 33.240 1696
 33.260 1663
 33.280 1711
 33.300 1772
 33.320 1725
 33.340 1732
 33.360 1715
 33.380 1719
 33.400 1673
 33.420 1694
 33.440 1697
 33.460 1663
 33.480 1671
 33.500 1650
 33.520 1694
 33.540 1704
 33.560 1663
 33.580 1683
 33.600 1667
 33.620 1702
 33.640 1740
 33.660 1678
 33.680 1746
 33.700 1679
 33.720 1737
 33.740 1670
 33.760 1696
 33.780 1669
 33.800 1697
 33.820 1675
 33.840 1620
 33.860 1625
 33.880 1655
 33.900 1600
 33.920 1699
 33.940 1531
 33.960 1578
 33.980 1610
 34.000 1652
 34.020 1543
 34.040 1602
 34.060 1630
 34.080 1630
 34.100 1610
 34.120 1595
 34.140 1585
 34.160 1624
 34.180 1593
 34.200 1637
 34.220 1701
 34.240 1671
 34.260 1666
 34.280 1643
 34.300 1573
 34.320 1591
 34.340 1563
 34.360 1684
 34.380 1617
 34.400 1704
 34.420 1623
 34.440 1595
 34.460 1633
 34.480 1657
 34.500 1665
 34.520 1651
 34.540 1685
 34.560 1773
 34.580 1807
 34.600 1920
 34.620 1978
 34.640 2045
 34.660 2371
 34.680 2475
 34.700 2430
 34.720 2541
 34.740 2389
 34.760 2367
 34.780 2322
 34.800 2108
 34.820 2057
 34.840 1980
 34.860 1876
 34.880 1823
 34.900 1774
 34.920 1739
 34.940 1729
 34.960 1688
 34.980 1652
 35.000 1628
 35.020 1660
 35.040 1719
 35.060 1734
 35.080 1771
 35.100 1860
 35.120 1820
 35.140 1885
 35.160 1995
 35.180 1868
 35.200 1791
 35.220 1713
 35.240 1776
 35.260 1706
 35.280 1712
 35.300 1562
 35.320 1556
 35.340 1609
 35.360 1434
 35.380 1576
 35.400 1517
 35.420 1487
 35.440 1426
 35.460 1467
 35.480 1522
 35.500 1438
 35.520 1499
 35.540 1492
 35.560 1394
 35.580 1427
 35.600 1410
 35.620 1471
 35.640 1371
 35.660 1462
 35.680 1458
 35.700 1468
 35.720 1369
 35.740 1334
 35.760 1430
 35.780 1475
 35.800 1401
 35.820 1383
 35.840 1392
 35.860 1448
 35.880 1423
 35.900 1401
 35.920 1437
 35.940 1344
 35.960 1427
 35.980 1370
 36.000 1346
 36.020 1336
 36.040 1387
 36.060 1405
 36.080 1365
 36.100 1367
 36.120 1389
 36.140 1404
 36.160 1319
 36.180 1426
 36.200 1359
 36.220 1411
 36.240 1349
 36.260 1421
 36.280 1400
 36.300 1392
 36.320 1354
 36.340 1392
 36.360 1404
 36.380 1422
 36.400 1428
 36.420 1463
 36.440 1404
 36.460 1437
 36.480 1452
 36.500 1467
 36.520 1553
 36.540 1554
 36.560 1597
 36.580 1612
 36.600 1646
 36.620 1660
 36.640 1656
 36.660 1650
 36.680 1676
 36.700 1712
 36.720 1593
 36.740 1765
 36.760 1831
 36.780 1991
 36.800 1970
 36.820 2022
 36.840 2086
 36.860 2190
 36.880 2141
 36.900 2247
 36.920 2319
 36.940 2479
 36.960 2917
 36.980 3069
 37.000 3339
 37.020 3344
 37.040 3245
 37.060 2986
 37.080 2980
 37.100 2736
 37.120 2468
 37.140 2247
 37.160 2077
 37.180 1856
 37.200 1707
 37.220 1684
 37.240 1667
 37.260 1662
 37.280 1612
 37.300 1687
 37.320 1698
 37.340 1752
 37.360 1747
 37.380 1829
 37.400 1638
 37.420 1697
 37.440 1672
 37.460 1573
 37.480 1580
 37.500 1504
 37.520 1488
 37.540 1392
 37.560 1361
 37.580 1369
 37.600 1385
 37.620 1376
 37.640 1339
 37.660 1356
 37.680 1310
 37.700 1310
 37.720 1326
 37.740 1314
 37.760 1326
 37.780 1338
 37.800 1373
 37.820 1315
 37.840 1337
 37.860 1429
 37.880 1274
 37.900 1326
 37.920 1266
 37.940 1371
 37.960 1253
 37.980 1197
 38.000 1297
 38.020 1310
 38.040 1217
 38.060 1270
 38.080 1335
 38.100 1306
 38.120 1261
 38.140 1290
 38.160 1214
 38.180 1264
 38.200 1264
 38.220 1249
 38.240 1224
 38.260 1292
 38.280 1201
 38.300 1223
 38.320 1171
 38.340 1280
 38.360 1192
 38.380 1207
 38.400 1172
 38.420 1144
 38.440 1193
 38.460 1222
 38.480 1261
 38.500 1236
 38.520 1198
 38.540 1212
 38.560 1219
 38.580 1257
 38.600 1304
 38.620 1295
 38.640 1289
 38.660 1275
 38.680 1335
 38.700 1320
 38.720 1337
 38.740 1306
 38.760 1303
 38.780 1241
 38.800 1157
 38.820 1202
 38.840 1239
 38.860 1203
 38.880 1179
 38.900 1160
 38.920 1251
 38.940 1258
 38.960 1230
 38.980 1242
 39.000 1190
 39.020 1231
 39.040 1208
 39.060 1213
 39.080 1180
 39.100 1171
 39.120 1279
 39.140 1165
 39.160 1141
 39.180 1232
 39.200 1148
 39.220 1159
 39.240 1154
 39.260 1142
 39.280 1169
 39.300 1120
 39.320 1131
 39.340 1152
 39.360 1122
 39.380 1122
 39.400 1108
 39.420 1094
 39.440 1184
 39.460 1124
 39.480 1167
 39.500 1079
 39.520 1087
 39.540 1180
 39.560 1204
 39.580 1190
 39.600 1141
 39.620 1130
 39.640 1230
 39.660 1117
 39.680 1145
 39.700 1148
 39.720 1153
 39.740 1173
 39.760 1161
 39.780 1143
 39.800 1141
 39.820 1154
 39.840 1197
 39.860 1230
 39.880 1240
 39.900 1178
 39.920 1208
 39.940 1279
 39.960 1266
 39.980 1304
 40.000 1310
 40.020 1303
 40.040 1325
 40.060 1336
 40.080 1317
 40.100 1341
 40.120 1278
 40.140 1257
 40.160 1225
 40.180 1215
 40.200 1275
 40.220 1193
 40.240 1227
 40.260 1145
 40.280 1105
 40.300 1195
 40.320 1216
 40.340 1139
 40.360 1130
 40.380 1182
 40.400 1198
 40.420 1158
 40.440 1197
 40.460 1130
 40.480 1143
 40.500 1169
 40.520 1224
 40.540 1155
 40.560 1255
 40.580 1258
 40.600 1330
 40.620 1346
 40.640 1362
 40.660 1389
 40.680 1325
 40.700 1362
 40.720 1322
 40.740 1297
 40.760 1410
 40.780 1363
 40.800 1314
 40.820 1284
 40.840 1314
 40.860 1275
 40.880 1324
 40.900 1241
 40.920 1277
 40.940 1300
 40.960 1313
 40.980 1304
 41.000 1345
 41.020 1331
 41.040 1408
 41.060 1549
 41.080 1558
 41.100 1729
 41.120 1768
 41.140 1714
 41.160 1706
 41.180 1680
 41.200 1735
 41.220 1748
 41.240 1731
 41.260 1761
 41.280 1651
 41.300 1574
 41.320 1619
 41.340 1553
 41.360 1533
 41.380 1509
 41.400 1427
 41.420 1361
 41.440 1380
 41.460 1412
 41.480 1272
 41.500 1262
 41.520 1251
 41.540 1177
 41.560 1247
 41.580 1214
 41.600 1181
 41.620 1254
 41.640 1232
 41.660 1250
 41.680 1282
 41.700 1212
 41.720 1250
 41.740 1229
 41.760 1302
 41.780 1243
 41.800 1175
 41.820 1258
 41.840 1242
 41.860 1249
 41.880 1243
 41.900 1250
 41.920 1238
 41.940 1317
 41.960 1241
 41.980 1297
 42.000 1260
 42.020 1246
 42.040 1324
 42.060 1302
 42.080 1332
 42.100 1294
 42.120 1294
 42.140 1342
 42.160 1399
 42.180 1420
 42.200 1391
 42.220 1388
 42.240 1563
 42.260 1617
 42.280 1685
 42.300 1585
 42.320 1682
 42.340 1691
 42.360 1618
 42.380 1587
 42.400 1570
 42.420 1467
 42.440 1566
 42.460 1450
 42.480 1404
 42.500 1534
 42.520 1451
 42.540 1460
 42.560 1349
 42.580 1327
 42.600 1381
 42.620 1362
 42.640 1321
 42.660 1287
 42.680 1314
 42.700 1215
 42.720 1143
 42.740 1225
 42.760 1241
 42.780 1212
 42.800 1201
 42.820 1163
 42.840 1230
 42.860 1137
 42.880 1155
 42.900 1179
 42.920 1227
 42.940 1144
 42.960 1246
 42.980 1164
 43.000 1140
 43.020 1210
 43.040 1222
 43.060 1184
 43.080 1235
 43.100 1247
 43.120 1251
 43.140 1311
 43.160 1239
 43.180 1247
 43.200 1215
 43.220 1283
 43.240 1300
 43.260 1340
 43.280 1398
 43.300 1387
 43.320 1526
 43.340 1610
 43.360 1544
 43.380 1613
 43.400 1589
 43.420 1578
 43.440 1710
 43.460 1655
 43.480 1662
 43.500 1669
 43.520 1673
 43.540 1505
 43.560 1450
 43.580 1470
 43.600 1429
 43.620 1334
 43.640 1296
 43.660 1325
 43.680 1239
 43.700 1213
 43.720 1163
 43.740 1165
 43.760 1170
 43.780 1205
 43.800 1218
 43.820 1192
 43.840 1126
 43.860 1203
 43.880 1117
 43.900 1123
 43.920 1152
 43.940 1147
 43.960 1114
 43.980 1144
 44.000 1139
 44.020 1126
 44.040 1173
 44.060 1172
 44.080 1191
 44.100 1153
 44.120 1174
 44.140 1170
 44.160 1232
 44.180 1204
 44.200 1197
 44.220 1159
 44.240 1157
 44.260 1208
 44.280 1178
 44.300 1213
 44.320 1210
 44.340 1160
 44.360 1168
 44.380 1138
 44.400 1098
 44.420 1149
 44.440 1120
 44.460 1169
 44.480 1125
 44.500 1179
 44.520 1186
 44.540 1102
 44.560 1095
 44.580 1089
 44.600 1080
 44.620 1125
 44.640 1070
 44.660 1139
 44.680 1103
 44.700 1178
 44.720 1097
 44.740 1120
 44.760 1186
 44.780 1162
 44.800 1111
 44.820 1169
 44.840 1264
 44.860 1152
 44.880 1230
 44.900 1236
 44.920 1258
 44.940 1215
 44.960 1254
 44.980 1271
 45.000 1257
 45.020 1151
 45.040 1276
 45.060 1263
 45.080 1275
 45.100 1292
 45.120 1433
 45.140 1305
 45.160 1363
 45.180 1383
 45.200 1395
 45.220 1462
 45.240 1443
 45.260 1529
 45.280 1514
 45.300 1515
 45.320 1483
 45.340 1466
 45.360 1557
 45.380 1457
 45.400 1543
 45.420 1499
 45.440 1544
 45.460 1491
 45.480 1441
 45.500 1492
 45.520 1523
 45.540 1536
 45.560 1590
 45.580 1663
 45.600 1630
 45.620 1667
 45.640 1606
 45.660 1584
 45.680 1557
 45.700 1599
 45.720 1473
 45.740 1409
 45.760 1465
 45.780 1374
 45.800 1365
 45.820 1335
 45.840 1249
 45.860 1197
 45.880 1162
 45.900 1236
 45.920 1223
 45.940 1148
 45.960 1203
 45.980 1184
 46.000 1177
 46.020 1167
 46.040 1179
 46.060 1100
 46.080 1114
 46.100 1162
 46.120 1150
 46.140 1236
 46.160 1202
 46.180 1191
 46.200 1216
 46.220 1166
 46.240 1193
 46.260 1140
 46.280 1195
 46.300 1194
 46.320 1076
 46.340 1166
 46.360 1109
 46.380 1180
 46.400 1122
 46.420 1135
 46.440 1241
 46.460 1175
 46.480 1129
 46.500 1181
 46.520 1126
 46.540 1193
 46.560 1132
 46.580 1078
 46.600 1127
 46.620 1185
 46.640 1052
 46.660 1137
 46.680 1095
 46.700 1123
 46.720 1111
 46.740 1110
 46.760 1154
 46.780 1118
 46.800 1082
 46.820 1044
 46.840 1059
 46.860 1145
 46.880 1140
 46.900 1099
 46.920 1077
 46.940 1153
 46.960 1070
 46.980 1116
 47.000 1121
 47.020 1137
 47.040 1173
 47.060 1223
 47.080 1145
 47.100 1270
 47.120 1276
 47.140 1246
 47.160 1218
 47.180 1218
 47.200 1215
 47.220 1223
 47.240 1195
 47.260 1243
 47.280 1162
 47.300 1117
 47.320 1151
 47.340 1086
 47.360 1155
 47.380 1094
 47.400 1188
 47.420 1060
 47.440 1083
 47.460 1041
 47.480 1080
 47.500 1116
 47.520 1125
 47.540 1087
 47.560 1092
 47.580 1052
 47.600 1107
 47.620 1053
 47.640 1106
 47.660 1080
 47.680 1048
 47.700 1043
 47.720 1110
 47.740 1082
 47.760 1138
 47.780 1128
 47.800 1132
 47.820 1196
 47.840 1161
 47.860 1144
 47.880 1119
 47.900 1240
 47.920 1225
 47.940 1257
 47.960 1295
 47.980 1317
 48.000 1314
 48.020 1390
 48.040 1463
 48.060 1538
 48.080 1479
 48.100 1571
 48.120 1543
 48.140 1523
 48.160 1565
 48.180 1493
 48.200 1562
 48.220 1482
 48.240 1430
 48.260 1462
 48.280 1427
 48.300 1422
 48.320 1369
 48.340 1416
 48.360 1255
 48.380 1285
 48.400 1255
 48.420 1208
 48.440 1173
 48.460 1139
 48.480 1216
 48.500 1110
 48.520 1095
 48.540 1119
 48.560 1092
 48.580 1111
 48.600 1067
 48.620 1075
 48.640 1078
 48.660 1047
 48.680 1106
 48.700 1073
 48.720 1000
 48.740 1042
 48.760 1060
 48.780 1054
 48.800 1021
 48.820 1013
 48.840 1040
 48.860 1082
 48.880 1034
 48.900 969
 48.920 1027
 48.940 1094
 48.960 1028
 48.980 1080
 49.000 1070
 49.020 1071
 49.040 1034
 49.060 1101
 49.080 1120
 49.100 1103
 49.120 1180
 49.140 1233
 49.160 1344
 49.180 1412
 49.200 1615
 49.220 1706
 49.240 1835
 49.260 1821
 49.280 1734
 49.300 1600
 49.320 1526
 49.340 1556
 49.360 1533
 49.380 1451
 49.400 1482
 49.420 1377
 49.440 1318
 49.460 1208
 49.480 1160
 49.500 1091
 49.520 1076
 49.540 1141
 49.560 1063
 49.580 1066
 49.600 1068
 49.620 1049
 49.640 1054
 49.660 1032
 49.680 1040
 49.700 1018
 49.720 1154
 49.740 1024
 49.760 1081
 49.780 1021
 49.800 1038
 49.820 1015
 49.840 1023
 49.860 1010
 49.880 1041
 49.900 1031
 49.920 1043
 49.940 1088
 49.960 995
 49.980 1055
 50.000 985
 50.020 1044
 50.040 999
 50.060 1004
 50.080 1044
 50.100 1043
 50.120 1042
 50.140 1071
 50.160 1026
 50.180 1049
 50.200 1047
 50.220 1046
 50.240 1001
 50.260 974
 50.280 999
 50.300 996
 50.320 1011
 50.340 990
 50.360 960
 50.380 992
 50.400 1009
 50.420 999
 50.440 1015
 50.460 960
 50.480 1000
 50.500 1075
 50.520 1021
 50.540 972
 50.560 965
 50.580 989
 50.600 997
 50.620 994
 50.640 951
 50.660 1010
 50.680 940
 50.700 959
 50.720 1008
 50.740 899
 50.760 1011
 50.780 957
 50.800 946
 50.820 915
 50.840 985
 50.860 1017
 50.880 979
 50.900 945
 50.920 947
 50.940 995
 50.960 985
 50.980 1038
 51.000 978
 51.020 989
 51.040 1050
 51.060 1040
 51.080 1079
 51.100 1018
 51.120 1072
 51.140 1143
 51.160 1214
 51.180 1298
 51.200 1374
 51.220 1391
 51.240 1524
 51.260 1543
 51.280 1493
 51.300 1673
 51.320 1573
 51.340 1574
 51.360 1629
 51.380 1522
 51.400 1338
 51.420 1385
 51.440 1332
 51.460 1299
 51.480 1265
 51.500 1225
 51.520 1191
 51.540 1193
 51.560 1103
 51.580 1134
 51.600 1083
 51.620 1011
 51.640 975
 51.660 975
 51.680 1009
 51.700 995
 51.720 966
 51.740 975
 51.760 1025
 51.780 975
 51.800 1001
 51.820 974
 51.840 975
 51.860 975
 51.880 1029
 51.900 1005
 51.920 1008
 51.940 1008
 51.960 1027
 51.980 1015
 52.000 999
 52.020 982
 52.040 985
 52.060 931
 52.080 982
 52.100 945
 52.120 998
 52.140 993
 52.160 1031
 52.180 958
 52.200 996
 52.220 1050
 52.240 1007
 52.260 988
 52.280 1086
 52.300 1011
 52.320 1052
 52.340 1054
 52.360 1043
 52.380 1072
 52.400 1089
 52.420 1119
 52.440 1063
 52.460 1190
 52.480 1189
 52.500 1244
 52.520 1359
 52.540 1378
 52.560 1415
 52.580 1437
 52.600 1384
 52.620 1463
 52.640 1473
 52.660 1485
 52.680 1529
 52.700 1549
 52.720 1505
 52.740 1411
 52.760 1425
 52.780 1459
 52.800 1385
 52.820 1345
 52.840 1263
 52.860 1315
 52.880 1188
 52.900 1222
 52.920 1156
 52.940 1162
 52.960 1121
 52.980 1096
 53.000 1142
 53.020 1108
 53.040 1086
 53.060 1105
 53.080 1175
 53.100 1095
 53.120 1193
 53.140 1035
 53.160 1173
 53.180 1119
 53.200 1159
 53.220 1200
 53.240 1121
 53.260 1163
 53.280 1194
 53.300 1166
 53.320 1074
 53.340 1091
 53.360 1058
 53.380 969
 53.400 1053
 53.420 1025
 53.440 1023
 53.460 1027
 53.480 1052
 53.500 942
 53.520 917
 53.540 1002
 53.560 931
 53.580 1020
 53.600 973
 53.620 963
 53.640 941
 53.660 950
 53.680 962
 53.700 965
 53.720 1006
 53.740 944
 53.760 1021
 53.780 968
 53.800 953
 53.820 996
 53.840 958
 53.860 961
 53.880 951
 53.900 903
 53.920 955
 53.940 949
 53.960 1017
 53.980 1029
 54.000 990
 54.020 1054
 54.040 984
 54.060 978
 54.080 1006
 54.100 1009
 54.120 993
 54.140 1012
 54.160 1071
 54.180 1135
 54.200 1134
 54.220 1222
 54.240 1121
 54.260 1102
 54.280 1130
 54.300 1107
 54.320 1100
 54.340 1031
 54.360 1086
 54.380 1124
 54.400 1073
 54.420 1034
 54.440 985
 54.460 1035
 54.480 1006
 54.500 989
 54.520 1043
 54.540 958
 54.560 917
 54.580 974
 54.600 960
 54.620 999
 54.640 946
 54.660 998
 54.680 1012
 54.700 959
 54.720 982
 54.740 977
 54.760 910
 54.780 970
 54.800 936
 54.820 996
 54.840 962
 54.860 946
 54.880 962
 54.900 989
 54.920 899
 54.940 991
 54.960 979
 54.980 1016
 55.000 1002
 55.020 1039
 55.040 957
 55.060 1015
 55.080 1037
 55.100 1071
 55.120 1104
 55.140 1108
 55.160 1167
 55.180 1138
 55.200 1160
 55.220 1169
 55.240 1163
 55.260 1140
 55.280 1136
 55.300 1175
 55.320 1221
 55.340 1149
 55.360 1185
 55.380 1120
 55.400 1153
 55.420 1257
 55.440 1172
 55.460 1154
 55.480 1227
 55.500 1253
 55.520 1245
 55.540 1295
 55.560 1177
 55.580 1205
 55.600 1188
 55.620 1209
 55.640 1245
 55.660 1196
 55.680 1167
 55.700 1175
 55.720 1134
 55.740 1181
 55.760 1092
 55.780 1110
 55.800 1107
 55.820 1059
 55.840 1061
 55.860 1016
 55.880 1051
 55.900 1044
 55.920 1040
 55.940 1009
 55.960 1057
 55.980 998
 56.000 1017
 56.020 1007
 56.040 953
 56.060 917
 56.080 1011
 56.100 953
 56.120 1036
 56.140 962
 56.160 1016
 56.180 1007
 56.200 973
 56.220 1017
 56.240 1027
 56.260 1027
 56.280 1000
 56.300 999
 56.320 1028
 56.340 999
 56.360 955
 56.380 996
 56.400 1000
 56.420 998
 56.440 1040
 56.460 1032
 56.480 1078
 56.500 1014
 56.520 1101
 56.540 1040
 56.560 1106
 56.580 1108
 56.600 1130
 56.620 1069
 56.640 1047
 56.660 1052
 56.680 1109
 56.700 1057
 56.720 1087
 56.740 1084
 56.760 991
 56.780 998
 56.800 1082
 56.820 1036
 56.840 1056
 56.860 1025
 56.880 1027
 56.900 1060
 56.920 1042
 56.940 1034
 56.960 943
 56.980 1084
 57.000 1091
 57.020 995
 57.040 1122
 57.060 1111
 57.080 1146
 57.100 1124
 57.120 1132
 57.140 1067
 57.160 1148
 57.180 1101
 57.200 1149
 57.220 1109
 57.240 1172
 57.260 1072
 57.280 1055
 57.300 1058
 57.320 1079
 57.340 1129
 57.360 1024
 57.380 1069
 57.400 1073
 57.420 1066
 57.440 1105
 57.460 1178
 57.480 1194
 57.500 1178
 57.520 1156
 57.540 1151
 57.560 1142
 57.580 1074
 57.600 1153
 57.620 1145
 57.640 1106
 57.660 1113
 57.680 1143
 57.700 1109
 57.720 1140
 57.740 1093
 57.760 1054
 57.780 1095
 57.800 988
 57.820 1006
 57.840 1033
 57.860 1046
 57.880 1009
 57.900 1030
 57.920 973
 57.940 986
 57.960 966
 57.980 979
 58.000 953
 58.020 1004
 58.040 981
 58.060 934
 58.080 1022
 58.100 1005
 58.120 1007
 58.140 1010
 58.160 1005
 58.180 963
 58.200 997
 58.220 957
 58.240 1029
 58.260 1023
 58.280 1031
 58.300 1003
 58.320 1019
 58.340 1036
 58.360 946
 58.380 918
 58.400 944
 58.420 934
 58.440 964
 58.460 904
 58.480 950
 58.500 930
 58.520 912
 58.540 998
 58.560 983
 58.580 924
 58.600 969
 58.620 973
 58.640 982
 58.660 902
 58.680 919
 58.700 958
 58.720 917
 58.740 896
 58.760 934
 58.780 945
 58.800 879
 58.820 960
 58.840 943
 58.860 897
 58.880 862
 58.900 964
 58.920 933
 58.940 953
 58.960 935
 58.980 934
 59.000 958
 59.020 907
 59.040 902
 59.060 1013
 59.080 942
 59.100 953
 59.120 961
 59.140 952
 59.160 959
 59.180 935
 59.200 955
 59.220 953
 59.240 975
 59.260 952
 59.280 972
 59.300 985
 59.320 969
 59.340 978
 59.360 988
 59.380 1022
 59.400 1063
 59.420 983
 59.440 1073
 59.460 977
 59.480 1078
 59.500 968
 59.520 1099
 59.540 1024
 59.560 1149
 59.580 1053
 59.600 1101
 59.620 964
 59.640 1056
 59.660 1046
 59.680 1092
 59.700 1095
 59.720 1062
 59.740 1027
 59.760 1002
 59.780 1111
 59.800 1053
 59.820 1007
 59.840 1001
 59.860 1050
 59.880 991
 59.900 1029
 59.920 989
 59.940 1013
 59.960 983
 59.980 1052
 60.000 1012
