SIETRONICS XRD SCAN
10.000
60.000
0.020
Cu
1.54060
11-7-2002
0.017
Sample 1 - sdpdrr2 - Cu XRD 1.54060
SCANDATA
860
925
948
846
910
934
946
918
895
899
911
861
874
869
904
888
926
872
928
901
887
908
938
880
896
842
829
894
927
897
870
908
914
885
931
888
819
893
887
877
832
939
920
920
910
984
968
904
874
946
877
946
874
903
951
939
920
890
905
893
977
852
893
895
897
942
895
964
920
924
923
945
909
978
868
926
910
970
936
900
959
970
967
954
981
1002
1026
992
1026
1027
1082
1068
1162
1230
1418
1724
2094
2472
2571
2472
2121
1610
1359
1188
1124
1120
1035
1008
1073
1015
1020
980
1001
1034
958
994
1042
990
966
1063
929
996
1012
1027
993
974
1001
989
986
1033
1037
993
1043
1045
1029
1010
1012
1048
1005
990
1005
1024
1032
1094
1049
1047
1086
1182
1159
1165
1254
1255
1322
1360
1447
1508
1576
1681
1883
2185
2614
3450
4434
6002
7895
8861
8648
7550
5962
4568
3475
3012
2830
2667
2678
2942
3178
3745
4644
5713
7017
7690
6938
5680
4207
2979
2332
1829
1574
1437
1402
1344
1299
1261
1267
1178
1227
1187
1095
1149
1205
1132
1172
1127
1160
1145
1188
1132
1185
1193
1137
1155
1188
1083
1163
1189
1188
1177
1204
1206
1172
1249
1175
1172
1215
1241
1227
1180
1233
1213
1231
1269
1233
1255
1238
1285
1283
1316
1328
1380
1308
1347
1299
1372
1240
1295
1283
1279
1339
1355
1296
1235
1288
1320
1385
1300
1337
1382
1369
1431
1433
1440
1502
1539
1575
1578
1680
1736
1790
1838
1912
2068
2258
2420
2763
3211
4072
5327
6761
8366
9786
10214
9707
8386
6867
5201
4190
3348
2941
2472
2329
2092
2006
1984
1904
1820
1692
1578
1533
1518
1520
1591
1485
1458
1523
1491
1506
1482
1506
1506
1477
1393
1490
1496
1490
1484
1480
1413
1455
1433
1430
1458
1466
1486
1547
1467
1507
1468
1459
1510
1480
1543
1476
1572
1625
1499
1525
1565
1535
1569
1592
1578
1644
1768
1753
1795
1887
1929
1917
2035
2131
2295
2616
2962
3674
4651
5971
7489
8789
8754
8442
6915
5459
4117
3339
2815
2511
2351
2236
2006
2015
1917
1879
1761
1855
1774
1686
1728
1681
1711
1690
1605
1676
1728
1684
1749
1748
1639
1634
1748
1796
1845
1900
2208
2407
2545
2739
2745
2564
2377
2206
1992
2002
1981
2061
2039
2349
2576
2653
2528
2457
2217
1970
1977
1865
1781
1795
1777
1807
1786
1794
1726
1711
1769
1761
1746
1772
1775
1788
1792
1810
1805
1765
1743
1797
1812
1766
1734
1807
1760
1786
1837
1773
1712
1825
1778
1770
1844
1898
1829
1828
1872
1816
1780
1856
1877
1830
1896
1870
1858
1939
1910
1852
1937
1962
1912
1946
1938
1926
1911
2034
1938
1867
1882
1891
1903
1954
1917
2005
1972
1949
1878
1867
1917
1952
2033
1999
1998
1915
2004
2005
2025
1968
2031
1917
1998
2040
1978
2031
2069
2049
2045
2008
1965
2023
2059
2028
2107
2155
2052
2005
2155
2078
2124
2117
2119
2072
2128
2161
2165
2098
2097
2235
2270
2254
2253
2376
2389
2368
2453
2466
2585
2673
2806
3013
3261
3643
4261
5258
6590
7367
7982
7763
7057
6180
5229
4284
3768
3198
2928
2877
2727
2668
2603
2512
2441
2431
2350
2405
2425
2257
2292
2304
2264
2324
2310
2224
2325
2296
2235
2289
2296
2201
2282
2279
2302
2299
2309
2278
2309
2299
2272
2343
2312
2301
2329
2232
2318
2258
2293
2341
2313
2324
2268
2310
2270
2281
2314
2401
2377
2302
2347
2393
2400
2331
2316
2295
2394
2343
2347
2443
2321
2321
2418
2401
2317
2256
2355
2358
2300
2339
2426
2383
2390
2400
2465
2407
2409
2374
2337
2478
2351
2375
2467
2397
2367
2387
2413
2407
2488
2398
2413
2431
2448
2379
2394
2313
2490
2423
2451
2460
2391
2496
2499
2483
2488
2519
2580
2595
2589
2811
2806
3056
3081
3069
2991
3014
2879
2830
2733
2728
2731
2780
2792
2779
2723
2823
2863
2897
3019
3323
3543
3595
3620
3339
3268
3016
2944
2761
2739
2786
2680
2700
2660
2754
2719
2649
2706
2988
3141
3324
3887
4155
4208
3998
3771
3526
3221
2962
2870
2660
2668
2581
2591
2583
2636
2502
2490
2532
2529
2461
2496
2442
2450
2450
2497
2585
2432
2452
2454
2474
2500
2488
2400
2403
2438
2417
2464
2486
2500
2461
2510
2408
2490
2544
2462
2453
2422
2482
2464
2527
2508
2362
2453
2494
2439
2466
2476
2525
2513
2538
2607
2522
2647
2588
2583
2798
2840
3029
3169
3434
3559
3510
3579
3452
3449
3302
3312
3280
3284
3155
3048
3117
2954
2956
3119
2954
2991
3123
3052
2979
2840
2797
2735
2537
2563
2572
2502
2514
2380
2405
2421
2432
2414
2458
2433
2398
2335
2372
2436
2420
2398
2383
2474
2444
2334
2420
2466
2346
2469
2300
2376
2351
2351
2390
2369
2389
2438
2375
2463
2366
2530
2562
2560
2665
2627
2893
3048
3184
3365
3455
3308
3259
2963
2899
2723
2670
2600
2606
2528
2504
2593
2592
2481
2507
2473
2464
2532
2509
2480
2510
2534
2528
2655
2670
2684
2713
2830
2927
3224
3500
3625
3753
3892
4124
4442
5040
5952
6804
7111
6951
7000
6856
6729
6922
7372
7675
7626
7358
6707
6016
5295
4581
4178
3721
3375
3226
3098
3165
2947
2879
2831
2674
2824
2816
2907
2995
3168
3203
3311
3282
3270
3119
2920
2805
2688
2614
2495
2366
2470
2370
2329
2321
2305
2227
2317
2314
2267
2226
2225
2240
2342
2142
2188
2275
2182
2160
2221
2200
2176
2223
2205
2191
2200
2249
2211
2283
2265
2193
2141
2236
2223
2128
2224
2215
2228
2082
2123
2263
2253
2254
2232
2327
2211
2237
2265
2327
2292
2473
2436
2743
2725
2755
2726
2764
2599
2567
2581
2534
2465
2487
2606
2790
2986
3312
3376
3227
3280
3089
3056
2830
2725
2564
2563
2649
2605
2778
2905
3085
3338
3675
3763
3937
4067
4191
4304
4400
4535
4474
4451
4303
4194
3935
3635
3403
3050
2877
2687
2598
2479
2463
2336
2297
2263
2167
2205
2245
2172
2286
2176
2145
2170
2286
2211
2322
2328
2296
2244
2275
2165
2199
2147
2173
2004
2105
2054
2112
2063
2044
2011
2029
2036
1999
2041
2103
2047
2004
2126
2031
2003
2004
2073
2085
2092
2105
2010
2062
2125
2170
2241
2258
2309
2411
2390
2629
2783
2871
2776
2933
2934
2733
2674
2583
2438
2436
2330
2291
2300
2159
2129
2106
2032
1944
1972
2043
1974
1925
2003
1951
1995
1997
2037
1944
1988
1953
1981
1837
1978
1937
1996
1905
1914
1859
1841
1819
1879
1808
1840
1834
1813
1904
1820
1987
1867
1911
1936
1866
1851
1836
1867
1766
1918
1832
1851
1823
1772
1805
1836
1821
1830
1817
1904
1885
1912
1857
1843
1840
1826
1760
1889
1877
1811
1815
1781
1788
1713
1872
1804
1698
1725
1708
1745
1696
1663
1711
1772
1725
1732
1715
1719
1673
1694
1697
1663
1671
1650
1694
1704
1663
1683
1667
1702
1740
1678
1746
1679
1737
1670
1696
1669
1697
1675
1620
1625
1655
1600
1699
1531
1578
1610
1652
1543
1602
1630
1630
1610
1595
1585
1624
1593
1637
1701
1671
1666
1643
1573
1591
1563
1684
1617
1704
1623
1595
1633
1657
1665
1651
1685
1773
1807
1920
1978
2045
2371
2475
2430
2541
2389
2367
2322
2108
2057
1980
1876
1823
1774
1739
1729
1688
1652
1628
1660
1719
1734
1771
1860
1820
1885
1995
1868
1791
1713
1776
1706
1712
1562
1556
1609
1434
1576
1517
1487
1426
1467
1522
1438
1499
1492
1394
1427
1410
1471
1371
1462
1458
1468
1369
1334
1430
1475
1401
1383
1392
1448
1423
1401
1437
1344
1427
1370
1346
1336
1387
1405
1365
1367
1389
1404
1319
1426
1359
1411
1349
1421
1400
1392
1354
1392
1404
1422
1428
1463
1404
1437
1452
1467
1553
1554
1597
1612
1646
1660
1656
1650
1676
1712
1593
1765
1831
1991
1970
2022
2086
2190
2141
2247
2319
2479
2917
3069
3339
3344
3245
2986
2980
2736
2468
2247
2077
1856
1707
1684
1667
1662
1612
1687
1698
1752
1747
1829
1638
1697
1672
1573
1580
1504
1488
1392
1361
1369
1385
1376
1339
1356
1310
1310
1326
1314
1326
1338
1373
1315
1337
1429
1274
1326
1266
1371
1253
1197
1297
1310
1217
1270
1335
1306
1261
1290
1214
1264
1264
1249
1224
1292
1201
1223
1171
1280
1192
1207
1172
1144
1193
1222
1261
1236
1198
1212
1219
1257
1304
1295
1289
1275
1335
1320
1337
1306
1303
1241
1157
1202
1239
1203
1179
1160
1251
1258
1230
1242
1190
1231
1208
1213
1180
1171
1279
1165
1141
1232
1148
1159
1154
1142
1169
1120
1131
1152
1122
1122
1108
1094
1184
1124
1167
1079
1087
1180
1204
1190
1141
1130
1230
1117
1145
1148
1153
1173
1161
1143
1141
1154
1197
1230
1240
1178
1208
1279
1266
1304
1310
1303
1325
1336
1317
1341
1278
1257
1225
1215
1275
1193
1227
1145
1105
1195
1216
1139
1130
1182
1198
1158
1197
1130
1143
1169
1224
1155
1255
1258
1330
1346
1362
1389
1325
1362
1322
1297
1410
1363
1314
1284
1314
1275
1324
1241
1277
1300
1313
1304
1345
1331
1408
1549
1558
1729
1768
1714
1706
1680
1735
1748
1731
1761
1651
1574
1619
1553
1533
1509
1427
1361
1380
1412
1272
1262
1251
1177
1247
1214
1181
1254
1232
1250
1282
1212
1250
1229
1302
1243
1175
1258
1242
1249
1243
1250
1238
1317
1241
1297
1260
1246
1324
1302
1332
1294
1294
1342
1399
1420
1391
1388
1563
1617
1685
1585
1682
1691
1618
1587
1570
1467
1566
1450
1404
1534
1451
1460
1349
1327
1381
1362
1321
1287
1314
1215
1143
1225
1241
1212
1201
1163
1230
1137
1155
1179
1227
1144
1246
1164
1140
1210
1222
1184
1235
1247
1251
1311
1239
1247
1215
1283
1300
1340
1398
1387
1526
1610
1544
1613
1589
1578
1710
1655
1662
1669
1673
1505
1450
1470
1429
1334
1296
1325
1239
1213
1163
1165
1170
1205
1218
1192
1126
1203
1117
1123
1152
1147
1114
1144
1139
1126
1173
1172
1191
1153
1174
1170
1232
1204
1197
1159
1157
1208
1178
1213
1210
1160
1168
1138
1098
1149
1120
1169
1125
1179
1186
1102
1095
1089
1080
1125
1070
1139
1103
1178
1097
1120
1186
1162
1111
1169
1264
1152
1230
1236
1258
1215
1254
1271
1257
1151
1276
1263
1275
1292
1433
1305
1363
1383
1395
1462
1443
1529
1514
1515
1483
1466
1557
1457
1543
1499
1544
1491
1441
1492
1523
1536
1590
1663
1630
1667
1606
1584
1557
1599
1473
1409
1465
1374
1365
1335
1249
1197
1162
1236
1223
1148
1203
1184
1177
1167
1179
1100
1114
1162
1150
1236
1202
1191
1216
1166
1193
1140
1195
1194
1076
1166
1109
1180
1122
1135
1241
1175
1129
1181
1126
1193
1132
1078
1127
1185
1052
1137
1095
1123
1111
1110
1154
1118
1082
1044
1059
1145
1140
1099
1077
1153
1070
1116
1121
1137
1173
1223
1145
1270
1276
1246
1218
1218
1215
1223
1195
1243
1162
1117
1151
1086
1155
1094
1188
1060
1083
1041
1080
1116
1125
1087
1092
1052
1107
1053
1106
1080
1048
1043
1110
1082
1138
1128
1132
1196
1161
1144
1119
1240
1225
1257
1295
1317
1314
1390
1463
1538
1479
1571
1543
1523
1565
1493
1562
1482
1430
1462
1427
1422
1369
1416
1255
1285
1255
1208
1173
1139
1216
1110
1095
1119
1092
1111
1067
1075
1078
1047
1106
1073
1000
1042
1060
1054
1021
1013
1040
1082
1034
969
1027
1094
1028
1080
1070
1071
1034
1101
1120
1103
1180
1233
1344
1412
1615
1706
1835
1821
1734
1600
1526
1556
1533
1451
1482
1377
1318
1208
1160
1091
1076
1141
1063
1066
1068
1049
1054
1032
1040
1018
1154
1024
1081
1021
1038
1015
1023
1010
1041
1031
1043
1088
995
1055
985
1044
999
1004
1044
1043
1042
1071
1026
1049
1047
1046
1001
974
999
996
1011
990
960
992
1009
999
1015
960
1000
1075
1021
972
965
989
997
994
951
1010
940
959
1008
899
1011
957
946
915
985
1017
979
945
947
995
985
1038
978
989
1050
1040
1079
1018
1072
1143
1214
1298
1374
1391
1524
1543
1493
1673
1573
1574
1629
1522
1338
1385
1332
1299
1265
1225
1191
1193
1103
1134
1083
1011
975
975
1009
995
966
975
1025
975
1001
974
975
975
1029
1005
1008
1008
1027
1015
999
982
985
931
982
945
998
993
1031
958
996
1050
1007
988
1086
1011
1052
1054
1043
1072
1089
1119
1063
1190
1189
1244
1359
1378
1415
1437
1384
1463
1473
1485
1529
1549
1505
1411
1425
1459
1385
1345
1263
1315
1188
1222
1156
1162
1121
1096
1142
1108
1086
1105
1175
1095
1193
1035
1173
1119
1159
1200
1121
1163
1194
1166
1074
1091
1058
969
1053
1025
1023
1027
1052
942
917
1002
931
1020
973
963
941
950
962
965
1006
944
1021
968
953
996
958
961
951
903
955
949
1017
1029
990
1054
984
978
1006
1009
993
1012
1071
1135
1134
1222
1121
1102
1130
1107
1100
1031
1086
1124
1073
1034
985
1035
1006
989
1043
958
917
974
960
999
946
998
1012
959
982
977
910
970
936
996
962
946
962
989
899
991
979
1016
1002
1039
957
1015
1037
1071
1104
1108
1167
1138
1160
1169
1163
1140
1136
1175
1221
1149
1185
1120
1153
1257
1172
1154
1227
1253
1245
1295
1177
1205
1188
1209
1245
1196
1167
1175
1134
1181
1092
1110
1107
1059
1061
1016
1051
1044
1040
1009
1057
998
1017
1007
953
917
1011
953
1036
962
1016
1007
973
1017
1027
1027
1000
999
1028
999
955
996
1000
998
1040
1032
1078
1014
1101
1040
1106
1108
1130
1069
1047
1052
1109
1057
1087
1084
991
998
1082
1036
1056
1025
1027
1060
1042
1034
943
1084
1091
995
1122
1111
1146
1124
1132
1067
1148
1101
1149
1109
1172
1072
1055
1058
1079
1129
1024
1069
1073
1066
1105
1178
1194
1178
1156
1151
1142
1074
1153
1145
1106
1113
1143
1109
1140
1093
1054
1095
988
1006
1033
1046
1009
1030
973
986
966
979
953
1004
981
934
1022
1005
1007
1010
1005
963
997
957
1029
1023
1031
1003
1019
1036
946
918
944
934
964
904
950
930
912
998
983
924
969
973
982
902
919
958
917
896
934
945
879
960
943
897
862
964
933
953
935
934
958
907
902
1013
942
953
961
952
959
935
955
953
975
952
972
985
969
978
988
1022
1063
983
1073
977
1078
968
1099
1024
1149
1053
1101
964
1056
1046
1092
1095
1062
1027
1002
1111
1053
1007
1001
1050
991
1029
989
1013
983
1052
1012
