Sample 1 - sdpdrr2 - Cu XRD 1.54060                  
BANK    1    2501       251 CONST       1000.00      2.00     0.000  0.000   STD
 1   860 1   925 1   948 1   846 1   910 1   934 1   946 1   918 1   895 1   899
 1   911 1   861 1   874 1   869 1   904 1   888 1   926 1   872 1   928 1   901
 1   887 1   908 1   938 1   880 1   896 1   842 1   829 1   894 1   927 1   897
 1   870 1   908 1   914 1   885 1   931 1   888 1   819 1   893 1   887 1   877
 1   832 1   939 1   920 1   920 1   910 1   984 1   968 1   904 1   874 1   946
 1   877 1   946 1   874 1   903 1   951 1   939 1   920 1   890 1   905 1   893
 1   977 1   852 1   893 1   895 1   897 1   942 1   895 1   964 1   920 1   924
 1   923 1   945 1   909 1   978 1   868 1   926 1   910 1   970 1   936 1   900
 1   959 1   970 1   967 1   954 1   981 1  1002 1  1026 1   992 1  1026 1  1027
 1  1082 1  1068 1  1162 1  1230 1  1418 1  1724 1  2094 1  2472 1  2571 1  2472
 1  2121 1  1610 1  1359 1  1188 1  1124 1  1120 1  1035 1  1008 1  1073 1  1015
 1  1020 1   980 1  1001 1  1034 1   958 1   994 1  1042 1   990 1   966 1  1063
 1   929 1   996 1  1012 1  1027 1   993 1   974 1  1001 1   989 1   986 1  1033
 1  1037 1   993 1  1043 1  1045 1  1029 1  1010 1  1012 1  1048 1  1005 1   990
 1  1005 1  1024 1  1032 1  1094 1  1049 1  1047 1  1086 1  1182 1  1159 1  1165
 1  1254 1  1255 1  1322 1  1360 1  1447 1  1508 1  1576 1  1681 1  1883 1  2185
 1  2614 1  3450 1  4434 1  6002 1  7895 1  8861 1  8648 1  7550 1  5962 1  4568
 1  3475 1  3012 1  2830 1  2667 1  2678 1  2942 1  3178 1  3745 1  4644 1  5713
 1  7017 1  7690 1  6938 1  5680 1  4207 1  2979 1  2332 1  1829 1  1574 1  1437
 1  1402 1  1344 1  1299 1  1261 1  1267 1  1178 1  1227 1  1187 1  1095 1  1149
 1  1205 1  1132 1  1172 1  1127 1  1160 1  1145 1  1188 1  1132 1  1185 1  1193
 1  1137 1  1155 1  1188 1  1083 1  1163 1  1189 1  1188 1  1177 1  1204 1  1206
 1  1172 1  1249 1  1175 1  1172 1  1215 1  1241 1  1227 1  1180 1  1233 1  1213
 1  1231 1  1269 1  1233 1  1255 1  1238 1  1285 1  1283 1  1316 1  1328 1  1380
 1  1308 1  1347 1  1299 1  1372 1  1240 1  1295 1  1283 1  1279 1  1339 1  1355
 1  1296 1  1235 1  1288 1  1320 1  1385 1  1300 1  1337 1  1382 1  1369 1  1431
 1  1433 1  1440 1  1502 1  1539 1  1575 1  1578 1  1680 1  1736 1  1790 1  1838
 1  1912 1  2068 1  2258 1  2420 1  2763 1  3211 1  4072 1  5327 1  6761 1  8366
 1  9786 1 10214 1  9707 1  8386 1  6867 1  5201 1  4190 1  3348 1  2941 1  2472
 1  2329 1  2092 1  2006 1  1984 1  1904 1  1820 1  1692 1  1578 1  1533 1  1518
 1  1520 1  1591 1  1485 1  1458 1  1523 1  1491 1  1506 1  1482 1  1506 1  1506
 1  1477 1  1393 1  1490 1  1496 1  1490 1  1484 1  1480 1  1413 1  1455 1  1433
 1  1430 1  1458 1  1466 1  1486 1  1547 1  1467 1  1507 1  1468 1  1459 1  1510
 1  1480 1  1543 1  1476 1  1572 1  1625 1  1499 1  1525 1  1565 1  1535 1  1569
 1  1592 1  1578 1  1644 1  1768 1  1753 1  1795 1  1887 1  1929 1  1917 1  2035
 1  2131 1  2295 1  2616 1  2962 1  3674 1  4651 1  5971 1  7489 1  8789 1  8754
 1  8442 1  6915 1  5459 1  4117 1  3339 1  2815 1  2511 1  2351 1  2236 1  2006
 1  2015 1  1917 1  1879 1  1761 1  1855 1  1774 1  1686 1  1728 1  1681 1  1711
 1  1690 1  1605 1  1676 1  1728 1  1684 1  1749 1  1748 1  1639 1  1634 1  1748
 1  1796 1  1845 1  1900 1  2208 1  2407 1  2545 1  2739 1  2745 1  2564 1  2377
 1  2206 1  1992 1  2002 1  1981 1  2061 1  2039 1  2349 1  2576 1  2653 1  2528
 1  2457 1  2217 1  1970 1  1977 1  1865 1  1781 1  1795 1  1777 1  1807 1  1786
 1  1794 1  1726 1  1711 1  1769 1  1761 1  1746 1  1772 1  1775 1  1788 1  1792
 1  1810 1  1805 1  1765 1  1743 1  1797 1  1812 1  1766 1  1734 1  1807 1  1760
 1  1786 1  1837 1  1773 1  1712 1  1825 1  1778 1  1770 1  1844 1  1898 1  1829
 1  1828 1  1872 1  1816 1  1780 1  1856 1  1877 1  1830 1  1896 1  1870 1  1858
 1  1939 1  1910 1  1852 1  1937 1  1962 1  1912 1  1946 1  1938 1  1926 1  1911
 1  2034 1  1938 1  1867 1  1882 1  1891 1  1903 1  1954 1  1917 1  2005 1  1972
 1  1949 1  1878 1  1867 1  1917 1  1952 1  2033 1  1999 1  1998 1  1915 1  2004
 1  2005 1  2025 1  1968 1  2031 1  1917 1  1998 1  2040 1  1978 1  2031 1  2069
 1  2049 1  2045 1  2008 1  1965 1  2023 1  2059 1  2028 1  2107 1  2155 1  2052
 1  2005 1  2155 1  2078 1  2124 1  2117 1  2119 1  2072 1  2128 1  2161 1  2165
 1  2098 1  2097 1  2235 1  2270 1  2254 1  2253 1  2376 1  2389 1  2368 1  2453
 1  2466 1  2585 1  2673 1  2806 1  3013 1  3261 1  3643 1  4261 1  5258 1  6590
 1  7367 1  7982 1  7763 1  7057 1  6180 1  5229 1  4284 1  3768 1  3198 1  2928
 1  2877 1  2727 1  2668 1  2603 1  2512 1  2441 1  2431 1  2350 1  2405 1  2425
 1  2257 1  2292 1  2304 1  2264 1  2324 1  2310 1  2224 1  2325 1  2296 1  2235
 1  2289 1  2296 1  2201 1  2282 1  2279 1  2302 1  2299 1  2309 1  2278 1  2309
 1  2299 1  2272 1  2343 1  2312 1  2301 1  2329 1  2232 1  2318 1  2258 1  2293
 1  2341 1  2313 1  2324 1  2268 1  2310 1  2270 1  2281 1  2314 1  2401 1  2377
 1  2302 1  2347 1  2393 1  2400 1  2331 1  2316 1  2295 1  2394 1  2343 1  2347
 1  2443 1  2321 1  2321 1  2418 1  2401 1  2317 1  2256 1  2355 1  2358 1  2300
 1  2339 1  2426 1  2383 1  2390 1  2400 1  2465 1  2407 1  2409 1  2374 1  2337
 1  2478 1  2351 1  2375 1  2467 1  2397 1  2367 1  2387 1  2413 1  2407 1  2488
 1  2398 1  2413 1  2431 1  2448 1  2379 1  2394 1  2313 1  2490 1  2423 1  2451
 1  2460 1  2391 1  2496 1  2499 1  2483 1  2488 1  2519 1  2580 1  2595 1  2589
 1  2811 1  2806 1  3056 1  3081 1  3069 1  2991 1  3014 1  2879 1  2830 1  2733
 1  2728 1  2731 1  2780 1  2792 1  2779 1  2723 1  2823 1  2863 1  2897 1  3019
 1  3323 1  3543 1  3595 1  3620 1  3339 1  3268 1  3016 1  2944 1  2761 1  2739
 1  2786 1  2680 1  2700 1  2660 1  2754 1  2719 1  2649 1  2706 1  2988 1  3141
 1  3324 1  3887 1  4155 1  4208 1  3998 1  3771 1  3526 1  3221 1  2962 1  2870
 1  2660 1  2668 1  2581 1  2591 1  2583 1  2636 1  2502 1  2490 1  2532 1  2529
 1  2461 1  2496 1  2442 1  2450 1  2450 1  2497 1  2585 1  2432 1  2452 1  2454
 1  2474 1  2500 1  2488 1  2400 1  2403 1  2438 1  2417 1  2464 1  2486 1  2500
 1  2461 1  2510 1  2408 1  2490 1  2544 1  2462 1  2453 1  2422 1  2482 1  2464
 1  2527 1  2508 1  2362 1  2453 1  2494 1  2439 1  2466 1  2476 1  2525 1  2513
 1  2538 1  2607 1  2522 1  2647 1  2588 1  2583 1  2798 1  2840 1  3029 1  3169
 1  3434 1  3559 1  3510 1  3579 1  3452 1  3449 1  3302 1  3312 1  3280 1  3284
 1  3155 1  3048 1  3117 1  2954 1  2956 1  3119 1  2954 1  2991 1  3123 1  3052
 1  2979 1  2840 1  2797 1  2735 1  2537 1  2563 1  2572 1  2502 1  2514 1  2380
 1  2405 1  2421 1  2432 1  2414 1  2458 1  2433 1  2398 1  2335 1  2372 1  2436
 1  2420 1  2398 1  2383 1  2474 1  2444 1  2334 1  2420 1  2466 1  2346 1  2469
 1  2300 1  2376 1  2351 1  2351 1  2390 1  2369 1  2389 1  2438 1  2375 1  2463
 1  2366 1  2530 1  2562 1  2560 1  2665 1  2627 1  2893 1  3048 1  3184 1  3365
 1  3455 1  3308 1  3259 1  2963 1  2899 1  2723 1  2670 1  2600 1  2606 1  2528
 1  2504 1  2593 1  2592 1  2481 1  2507 1  2473 1  2464 1  2532 1  2509 1  2480
 1  2510 1  2534 1  2528 1  2655 1  2670 1  2684 1  2713 1  2830 1  2927 1  3224
 1  3500 1  3625 1  3753 1  3892 1  4124 1  4442 1  5040 1  5952 1  6804 1  7111
 1  6951 1  7000 1  6856 1  6729 1  6922 1  7372 1  7675 1  7626 1  7358 1  6707
 1  6016 1  5295 1  4581 1  4178 1  3721 1  3375 1  3226 1  3098 1  3165 1  2947
 1  2879 1  2831 1  2674 1  2824 1  2816 1  2907 1  2995 1  3168 1  3203 1  3311
 1  3282 1  3270 1  3119 1  2920 1  2805 1  2688 1  2614 1  2495 1  2366 1  2470
 1  2370 1  2329 1  2321 1  2305 1  2227 1  2317 1  2314 1  2267 1  2226 1  2225
 1  2240 1  2342 1  2142 1  2188 1  2275 1  2182 1  2160 1  2221 1  2200 1  2176
 1  2223 1  2205 1  2191 1  2200 1  2249 1  2211 1  2283 1  2265 1  2193 1  2141
 1  2236 1  2223 1  2128 1  2224 1  2215 1  2228 1  2082 1  2123 1  2263 1  2253
 1  2254 1  2232 1  2327 1  2211 1  2237 1  2265 1  2327 1  2292 1  2473 1  2436
 1  2743 1  2725 1  2755 1  2726 1  2764 1  2599 1  2567 1  2581 1  2534 1  2465
 1  2487 1  2606 1  2790 1  2986 1  3312 1  3376 1  3227 1  3280 1  3089 1  3056
 1  2830 1  2725 1  2564 1  2563 1  2649 1  2605 1  2778 1  2905 1  3085 1  3338
 1  3675 1  3763 1  3937 1  4067 1  4191 1  4304 1  4400 1  4535 1  4474 1  4451
 1  4303 1  4194 1  3935 1  3635 1  3403 1  3050 1  2877 1  2687 1  2598 1  2479
 1  2463 1  2336 1  2297 1  2263 1  2167 1  2205 1  2245 1  2172 1  2286 1  2176
 1  2145 1  2170 1  2286 1  2211 1  2322 1  2328 1  2296 1  2244 1  2275 1  2165
 1  2199 1  2147 1  2173 1  2004 1  2105 1  2054 1  2112 1  2063 1  2044 1  2011
 1  2029 1  2036 1  1999 1  2041 1  2103 1  2047 1  2004 1  2126 1  2031 1  2003
 1  2004 1  2073 1  2085 1  2092 1  2105 1  2010 1  2062 1  2125 1  2170 1  2241
 1  2258 1  2309 1  2411 1  2390 1  2629 1  2783 1  2871 1  2776 1  2933 1  2934
 1  2733 1  2674 1  2583 1  2438 1  2436 1  2330 1  2291 1  2300 1  2159 1  2129
 1  2106 1  2032 1  1944 1  1972 1  2043 1  1974 1  1925 1  2003 1  1951 1  1995
 1  1997 1  2037 1  1944 1  1988 1  1953 1  1981 1  1837 1  1978 1  1937 1  1996
 1  1905 1  1914 1  1859 1  1841 1  1819 1  1879 1  1808 1  1840 1  1834 1  1813
 1  1904 1  1820 1  1987 1  1867 1  1911 1  1936 1  1866 1  1851 1  1836 1  1867
 1  1766 1  1918 1  1832 1  1851 1  1823 1  1772 1  1805 1  1836 1  1821 1  1830
 1  1817 1  1904 1  1885 1  1912 1  1857 1  1843 1  1840 1  1826 1  1760 1  1889
 1  1877 1  1811 1  1815 1  1781 1  1788 1  1713 1  1872 1  1804 1  1698 1  1725
 1  1708 1  1745 1  1696 1  1663 1  1711 1  1772 1  1725 1  1732 1  1715 1  1719
 1  1673 1  1694 1  1697 1  1663 1  1671 1  1650 1  1694 1  1704 1  1663 1  1683
 1  1667 1  1702 1  1740 1  1678 1  1746 1  1679 1  1737 1  1670 1  1696 1  1669
 1  1697 1  1675 1  1620 1  1625 1  1655 1  1600 1  1699 1  1531 1  1578 1  1610
 1  1652 1  1543 1  1602 1  1630 1  1630 1  1610 1  1595 1  1585 1  1624 1  1593
 1  1637 1  1701 1  1671 1  1666 1  1643 1  1573 1  1591 1  1563 1  1684 1  1617
 1  1704 1  1623 1  1595 1  1633 1  1657 1  1665 1  1651 1  1685 1  1773 1  1807
 1  1920 1  1978 1  2045 1  2371 1  2475 1  2430 1  2541 1  2389 1  2367 1  2322
 1  2108 1  2057 1  1980 1  1876 1  1823 1  1774 1  1739 1  1729 1  1688 1  1652
 1  1628 1  1660 1  1719 1  1734 1  1771 1  1860 1  1820 1  1885 1  1995 1  1868
 1  1791 1  1713 1  1776 1  1706 1  1712 1  1562 1  1556 1  1609 1  1434 1  1576
 1  1517 1  1487 1  1426 1  1467 1  1522 1  1438 1  1499 1  1492 1  1394 1  1427
 1  1410 1  1471 1  1371 1  1462 1  1458 1  1468 1  1369 1  1334 1  1430 1  1475
 1  1401 1  1383 1  1392 1  1448 1  1423 1  1401 1  1437 1  1344 1  1427 1  1370
 1  1346 1  1336 1  1387 1  1405 1  1365 1  1367 1  1389 1  1404 1  1319 1  1426
 1  1359 1  1411 1  1349 1  1421 1  1400 1  1392 1  1354 1  1392 1  1404 1  1422
 1  1428 1  1463 1  1404 1  1437 1  1452 1  1467 1  1553 1  1554 1  1597 1  1612
 1  1646 1  1660 1  1656 1  1650 1  1676 1  1712 1  1593 1  1765 1  1831 1  1991
 1  1970 1  2022 1  2086 1  2190 1  2141 1  2247 1  2319 1  2479 1  2917 1  3069
 1  3339 1  3344 1  3245 1  2986 1  2980 1  2736 1  2468 1  2247 1  2077 1  1856
 1  1707 1  1684 1  1667 1  1662 1  1612 1  1687 1  1698 1  1752 1  1747 1  1829
 1  1638 1  1697 1  1672 1  1573 1  1580 1  1504 1  1488 1  1392 1  1361 1  1369
 1  1385 1  1376 1  1339 1  1356 1  1310 1  1310 1  1326 1  1314 1  1326 1  1338
 1  1373 1  1315 1  1337 1  1429 1  1274 1  1326 1  1266 1  1371 1  1253 1  1197
 1  1297 1  1310 1  1217 1  1270 1  1335 1  1306 1  1261 1  1290 1  1214 1  1264
 1  1264 1  1249 1  1224 1  1292 1  1201 1  1223 1  1171 1  1280 1  1192 1  1207
 1  1172 1  1144 1  1193 1  1222 1  1261 1  1236 1  1198 1  1212 1  1219 1  1257
 1  1304 1  1295 1  1289 1  1275 1  1335 1  1320 1  1337 1  1306 1  1303 1  1241
 1  1157 1  1202 1  1239 1  1203 1  1179 1  1160 1  1251 1  1258 1  1230 1  1242
 1  1190 1  1231 1  1208 1  1213 1  1180 1  1171 1  1279 1  1165 1  1141 1  1232
 1  1148 1  1159 1  1154 1  1142 1  1169 1  1120 1  1131 1  1152 1  1122 1  1122
 1  1108 1  1094 1  1184 1  1124 1  1167 1  1079 1  1087 1  1180 1  1204 1  1190
 1  1141 1  1130 1  1230 1  1117 1  1145 1  1148 1  1153 1  1173 1  1161 1  1143
 1  1141 1  1154 1  1197 1  1230 1  1240 1  1178 1  1208 1  1279 1  1266 1  1304
 1  1310 1  1303 1  1325 1  1336 1  1317 1  1341 1  1278 1  1257 1  1225 1  1215
 1  1275 1  1193 1  1227 1  1145 1  1105 1  1195 1  1216 1  1139 1  1130 1  1182
 1  1198 1  1158 1  1197 1  1130 1  1143 1  1169 1  1224 1  1155 1  1255 1  1258
 1  1330 1  1346 1  1362 1  1389 1  1325 1  1362 1  1322 1  1297 1  1410 1  1363
 1  1314 1  1284 1  1314 1  1275 1  1324 1  1241 1  1277 1  1300 1  1313 1  1304
 1  1345 1  1331 1  1408 1  1549 1  1558 1  1729 1  1768 1  1714 1  1706 1  1680
 1  1735 1  1748 1  1731 1  1761 1  1651 1  1574 1  1619 1  1553 1  1533 1  1509
 1  1427 1  1361 1  1380 1  1412 1  1272 1  1262 1  1251 1  1177 1  1247 1  1214
 1  1181 1  1254 1  1232 1  1250 1  1282 1  1212 1  1250 1  1229 1  1302 1  1243
 1  1175 1  1258 1  1242 1  1249 1  1243 1  1250 1  1238 1  1317 1  1241 1  1297
 1  1260 1  1246 1  1324 1  1302 1  1332 1  1294 1  1294 1  1342 1  1399 1  1420
 1  1391 1  1388 1  1563 1  1617 1  1685 1  1585 1  1682 1  1691 1  1618 1  1587
 1  1570 1  1467 1  1566 1  1450 1  1404 1  1534 1  1451 1  1460 1  1349 1  1327
 1  1381 1  1362 1  1321 1  1287 1  1314 1  1215 1  1143 1  1225 1  1241 1  1212
 1  1201 1  1163 1  1230 1  1137 1  1155 1  1179 1  1227 1  1144 1  1246 1  1164
 1  1140 1  1210 1  1222 1  1184 1  1235 1  1247 1  1251 1  1311 1  1239 1  1247
 1  1215 1  1283 1  1300 1  1340 1  1398 1  1387 1  1526 1  1610 1  1544 1  1613
 1  1589 1  1578 1  1710 1  1655 1  1662 1  1669 1  1673 1  1505 1  1450 1  1470
 1  1429 1  1334 1  1296 1  1325 1  1239 1  1213 1  1163 1  1165 1  1170 1  1205
 1  1218 1  1192 1  1126 1  1203 1  1117 1  1123 1  1152 1  1147 1  1114 1  1144
 1  1139 1  1126 1  1173 1  1172 1  1191 1  1153 1  1174 1  1170 1  1232 1  1204
 1  1197 1  1159 1  1157 1  1208 1  1178 1  1213 1  1210 1  1160 1  1168 1  1138
 1  1098 1  1149 1  1120 1  1169 1  1125 1  1179 1  1186 1  1102 1  1095 1  1089
 1  1080 1  1125 1  1070 1  1139 1  1103 1  1178 1  1097 1  1120 1  1186 1  1162
 1  1111 1  1169 1  1264 1  1152 1  1230 1  1236 1  1258 1  1215 1  1254 1  1271
 1  1257 1  1151 1  1276 1  1263 1  1275 1  1292 1  1433 1  1305 1  1363 1  1383
 1  1395 1  1462 1  1443 1  1529 1  1514 1  1515 1  1483 1  1466 1  1557 1  1457
 1  1543 1  1499 1  1544 1  1491 1  1441 1  1492 1  1523 1  1536 1  1590 1  1663
 1  1630 1  1667 1  1606 1  1584 1  1557 1  1599 1  1473 1  1409 1  1465 1  1374
 1  1365 1  1335 1  1249 1  1197 1  1162 1  1236 1  1223 1  1148 1  1203 1  1184
 1  1177 1  1167 1  1179 1  1100 1  1114 1  1162 1  1150 1  1236 1  1202 1  1191
 1  1216 1  1166 1  1193 1  1140 1  1195 1  1194 1  1076 1  1166 1  1109 1  1180
 1  1122 1  1135 1  1241 1  1175 1  1129 1  1181 1  1126 1  1193 1  1132 1  1078
 1  1127 1  1185 1  1052 1  1137 1  1095 1  1123 1  1111 1  1110 1  1154 1  1118
 1  1082 1  1044 1  1059 1  1145 1  1140 1  1099 1  1077 1  1153 1  1070 1  1116
 1  1121 1  1137 1  1173 1  1223 1  1145 1  1270 1  1276 1  1246 1  1218 1  1218
 1  1215 1  1223 1  1195 1  1243 1  1162 1  1117 1  1151 1  1086 1  1155 1  1094
 1  1188 1  1060 1  1083 1  1041 1  1080 1  1116 1  1125 1  1087 1  1092 1  1052
 1  1107 1  1053 1  1106 1  1080 1  1048 1  1043 1  1110 1  1082 1  1138 1  1128
 1  1132 1  1196 1  1161 1  1144 1  1119 1  1240 1  1225 1  1257 1  1295 1  1317
 1  1314 1  1390 1  1463 1  1538 1  1479 1  1571 1  1543 1  1523 1  1565 1  1493
 1  1562 1  1482 1  1430 1  1462 1  1427 1  1422 1  1369 1  1416 1  1255 1  1285
 1  1255 1  1208 1  1173 1  1139 1  1216 1  1110 1  1095 1  1119 1  1092 1  1111
 1  1067 1  1075 1  1078 1  1047 1  1106 1  1073 1  1000 1  1042 1  1060 1  1054
 1  1021 1  1013 1  1040 1  1082 1  1034 1   969 1  1027 1  1094 1  1028 1  1080
 1  1070 1  1071 1  1034 1  1101 1  1120 1  1103 1  1180 1  1233 1  1344 1  1412
 1  1615 1  1706 1  1835 1  1821 1  1734 1  1600 1  1526 1  1556 1  1533 1  1451
 1  1482 1  1377 1  1318 1  1208 1  1160 1  1091 1  1076 1  1141 1  1063 1  1066
 1  1068 1  1049 1  1054 1  1032 1  1040 1  1018 1  1154 1  1024 1  1081 1  1021
 1  1038 1  1015 1  1023 1  1010 1  1041 1  1031 1  1043 1  1088 1   995 1  1055
 1   985 1  1044 1   999 1  1004 1  1044 1  1043 1  1042 1  1071 1  1026 1  1049
 1  1047 1  1046 1  1001 1   974 1   999 1   996 1  1011 1   990 1   960 1   992
 1  1009 1   999 1  1015 1   960 1  1000 1  1075 1  1021 1   972 1   965 1   989
 1   997 1   994 1   951 1  1010 1   940 1   959 1  1008 1   899 1  1011 1   957
 1   946 1   915 1   985 1  1017 1   979 1   945 1   947 1   995 1   985 1  1038
 1   978 1   989 1  1050 1  1040 1  1079 1  1018 1  1072 1  1143 1  1214 1  1298
 1  1374 1  1391 1  1524 1  1543 1  1493 1  1673 1  1573 1  1574 1  1629 1  1522
 1  1338 1  1385 1  1332 1  1299 1  1265 1  1225 1  1191 1  1193 1  1103 1  1134
 1  1083 1  1011 1   975 1   975 1  1009 1   995 1   966 1   975 1  1025 1   975
 1  1001 1   974 1   975 1   975 1  1029 1  1005 1  1008 1  1008 1  1027 1  1015
 1   999 1   982 1   985 1   931 1   982 1   945 1   998 1   993 1  1031 1   958
 1   996 1  1050 1  1007 1   988 1  1086 1  1011 1  1052 1  1054 1  1043 1  1072
 1  1089 1  1119 1  1063 1  1190 1  1189 1  1244 1  1359 1  1378 1  1415 1  1437
 1  1384 1  1463 1  1473 1  1485 1  1529 1  1549 1  1505 1  1411 1  1425 1  1459
 1  1385 1  1345 1  1263 1  1315 1  1188 1  1222 1  1156 1  1162 1  1121 1  1096
 1  1142 1  1108 1  1086 1  1105 1  1175 1  1095 1  1193 1  1035 1  1173 1  1119
 1  1159 1  1200 1  1121 1  1163 1  1194 1  1166 1  1074 1  1091 1  1058 1   969
 1  1053 1  1025 1  1023 1  1027 1  1052 1   942 1   917 1  1002 1   931 1  1020
 1   973 1   963 1   941 1   950 1   962 1   965 1  1006 1   944 1  1021 1   968
 1   953 1   996 1   958 1   961 1   951 1   903 1   955 1   949 1  1017 1  1029
 1   990 1  1054 1   984 1   978 1  1006 1  1009 1   993 1  1012 1  1071 1  1135
 1  1134 1  1222 1  1121 1  1102 1  1130 1  1107 1  1100 1  1031 1  1086 1  1124
 1  1073 1  1034 1   985 1  1035 1  1006 1   989 1  1043 1   958 1   917 1   974
 1   960 1   999 1   946 1   998 1  1012 1   959 1   982 1   977 1   910 1   970
 1   936 1   996 1   962 1   946 1   962 1   989 1   899 1   991 1   979 1  1016
 1  1002 1  1039 1   957 1  1015 1  1037 1  1071 1  1104 1  1108 1  1167 1  1138
 1  1160 1  1169 1  1163 1  1140 1  1136 1  1175 1  1221 1  1149 1  1185 1  1120
 1  1153 1  1257 1  1172 1  1154 1  1227 1  1253 1  1245 1  1295 1  1177 1  1205
 1  1188 1  1209 1  1245 1  1196 1  1167 1  1175 1  1134 1  1181 1  1092 1  1110
 1  1107 1  1059 1  1061 1  1016 1  1051 1  1044 1  1040 1  1009 1  1057 1   998
 1  1017 1  1007 1   953 1   917 1  1011 1   953 1  1036 1   962 1  1016 1  1007
 1   973 1  1017 1  1027 1  1027 1  1000 1   999 1  1028 1   999 1   955 1   996
 1  1000 1   998 1  1040 1  1032 1  1078 1  1014 1  1101 1  1040 1  1106 1  1108
 1  1130 1  1069 1  1047 1  1052 1  1109 1  1057 1  1087 1  1084 1   991 1   998
 1  1082 1  1036 1  1056 1  1025 1  1027 1  1060 1  1042 1  1034 1   943 1  1084
 1  1091 1   995 1  1122 1  1111 1  1146 1  1124 1  1132 1  1067 1  1148 1  1101
 1  1149 1  1109 1  1172 1  1072 1  1055 1  1058 1  1079 1  1129 1  1024 1  1069
 1  1073 1  1066 1  1105 1  1178 1  1194 1  1178 1  1156 1  1151 1  1142 1  1074
 1  1153 1  1145 1  1106 1  1113 1  1143 1  1109 1  1140 1  1093 1  1054 1  1095
 1   988 1  1006 1  1033 1  1046 1  1009 1  1030 1   973 1   986 1   966 1   979
 1   953 1  1004 1   981 1   934 1  1022 1  1005 1  1007 1  1010 1  1005 1   963
 1   997 1   957 1  1029 1  1023 1  1031 1  1003 1  1019 1  1036 1   946 1   918
 1   944 1   934 1   964 1   904 1   950 1   930 1   912 1   998 1   983 1   924
 1   969 1   973 1   982 1   902 1   919 1   958 1   917 1   896 1   934 1   945
 1   879 1   960 1   943 1   897 1   862 1   964 1   933 1   953 1   935 1   934
 1   958 1   907 1   902 1  1013 1   942 1   953 1   961 1   952 1   959 1   935
 1   955 1   953 1   975 1   952 1   972 1   985 1   969 1   978 1   988 1  1022
 1  1063 1   983 1  1073 1   977 1  1078 1   968 1  1099 1  1024 1  1149 1  1053
 1  1101 1   964 1  1056 1  1046 1  1092 1  1095 1  1062 1  1027 1  1002 1  1111
 1  1053 1  1007 1  1001 1  1050 1   991 1  1029 1   989 1  1013 1   983 1  1052
 1  1012                                                                        
